0.856163
0.851627
0.847481
0.843586
0.839014
0.832457
0.823000
0.810812
0.797320
0.784662
0.774608
0.767460
0.761579
0.753953
0.741769
0.724459
0.705461
0.693033
0.699811
0.741211
0.833033
0.988553
1.215251
1.511333
1.862560
2.240493
2.603690
2.902926
3.090181
3.129279
3.004825
2.726360
2.326292
1.852523
1.358459
0.893535
0.496561
0.192557
-0.007602
-0.105984
-0.115711
-0.058563
0.038275
0.146445
0.241154
0.305323
0.331923
0.323770
0.290927
0.246642
0.203163
0.168660
0.145984
0.133304
0.126074
0.119429
0.110109
0.097296
0.082276
0.067304
0.054285
0.043820
0.034961
0.025686
0.013884
-0.001590
-0.020239
-0.039934
-0.057644
-0.070568
-0.077219
-0.077968
-0.074799
-0.070405
-0.067074
-0.065887
-0.066591
-0.068049
-0.068944
-0.068258
-0.065310
-0.059424
-0.049620
-0.034701
-0.013850
0.012553
0.042457
0.072486
0.099105
0.120125
0.135754
0.148655
0.162907
0.182355
0.209115
0.242898
0.281436
0.321720
0.361368
0.399445
0.436422
0.473453
0.511429
0.550342
0.589214
0.626593
0.661277
0.692868
0.721829
0.748989
0.774766
0.798530
0.818578
0.832828
0.839972
0.840472
0.836841
0.832921
0.832398
0.837200
0.846564
0.857236
0.864752
0.865201
0.856651
0.839613
0.816449
0.790176
0.763362
0.737602
0.713572
0.691369
0.670780
0.651356
0.632354
0.612751
0.591465
0.567754
0.541593
0.513820
0.485900
0.459387
0.435263
0.413438
0.392654
0.370893
0.346184
0.317486
0.285279
0.251620
0.219588
0.192282
0.171733
0.158217
0.150267
0.145348
0.140781
0.134457
0.125147
0.112504
0.097013
0.080057
0.064024
0.052218
0.048299
0.055271
0.074387
0.104510
0.142286
0.183122
0.222549
0.257394
0.286329
0.309620
0.328308
0.343230
0.354324
0.360471
0.359859
0.350617
0.331428
0.301895
0.262635
0.215204
0.161988
0.106141
0.051512
0.002378
-0.037165
-0.064102
-0.077448
-0.078789
-0.072091
-0.062707
-0.055852
-0.055109
-0.061536
-0.073706
-0.088616
-0.102983
-0.114324
-0.121403
-0.124078
-0.122912
-0.118900
-0.113468
-0.108600
-0.106845
-0.110926
-0.122860
-0.142674
-0.167066
-0.188504
-0.195161
-0.171899
-0.102228
0.028945
0.231888
0.508079
0.846297
1.220069
1.588340
1.900809
2.107764
2.171967
2.078569
1.839160
1.488254
1.073613
0.644208
0.240198
-0.112101
-0.399737
-0.618939
-0.770263
-0.855743
-0.879064
-0.847778
-0.775329
-0.680848
-0.586046
-0.510266
-0.465759
-0.455196
-0.472342
-0.505478
-0.542048
-0.572689
-0.593238
-0.604339
-0.609375
-0.612029
-0.614710
-0.618298
-0.622878
-0.628609
-0.636040
-0.645705
-0.657394
-0.669701
-0.680230
-0.686411
-0.686557
-0.680643
-0.670429
-0.658838
-0.648829
-0.642278
-0.639370
-0.638692
-0.637897
-0.634541
-0.626757
-0.613562
-0.594814
-0.570989
-0.542975
-0.512010
-0.479704
-0.447977
-0.418724
-0.393213
-0.371455
-0.351906
-0.331792
-0.308039
-0.278448
-0.242577
-0.201912
-0.159276
-0.117739
-0.079511
-0.045288
-0.014256
0.015313
0.045201
0.076539
0.109562
0.143841
0.178737
0.213701
0.248197
0.281390
0.311948
0.338286
0.359192
0.374487
0.385237
0.393319
0.400512
0.407578
0.413872
0.417715
0.417389
0.412187
0.402933
0.391635
0.380419
0.370317
0.360615
0.349162
0.333512
0.312290
0.286036
0.257062
0.228411
0.202471
0.179985
0.159949
0.140394
0.119597
0.097024
0.073532
0.050758
0.030098
0.011844
-0.005072
-0.022643
-0.042889
-0.066954
-0.094608
-0.124395
-0.154319
-0.182694
-0.208707
-0.232421
-0.254263
-0.274338
-0.291992
-0.305901
-0.314674
-0.317692
-0.315738
-0.311049
-0.306658
-0.305225
-0.307868
-0.313520
-0.319167
-0.320888
-0.315296
-0.300750
-0.277839
-0.248960
-0.217276
-0.185561
-0.155460
-0.127410
-0.101094
-0.076098
-0.052371
-0.030297
-0.010475
0.006481
0.019851
0.028421
0.030141
0.022246
0.002079
-0.031598
-0.077401
-0.130938
-0.185636
-0.234596
-0.272721
-0.298193
-0.312647
-0.320053
-0.324863
-0.330276
-0.337296
-0.344887
-0.351001
-0.353868
-0.352918
-0.348925
-0.343415
-0.337778
-0.332634
-0.327797
-0.322776
-0.317412
-0.312209
-0.308163
-0.306290
-0.307204
-0.311050
-0.317800
-0.327569
-0.340478
-0.355721
-0.369958
-0.375615
-0.360035
-0.306316
-0.196243
-0.014890
0.244177
0.574568
0.954947
1.350069
1.715255
2.003783
2.175702
2.205820
2.088510
1.837876
1.483434
1.063139
0.616310
0.178584
-0.220393
-0.557302
-0.815085
-0.983712
-1.061887
-1.058526
-0.992463
-0.889428
-0.776781
-0.677684
-0.606779
-0.568720
-0.559691
-0.570860
-0.592232
-0.615578
-0.635815
-0.650952
-0.661203
-0.667911
-0.672691
-0.676885
-0.681279
-0.685991
-0.690535
-0.694082
-0.695892
-0.695787
-0.694426
-0.693193
-0.693671
-0.696894
-0.702725
-0.709634
-0.715050
-0.716189
-0.711084
-0.699422
-0.682819
-0.664348
-0.647456
-0.634690
-0.626761
-0.622363
-0.618784
-0.612986
-0.602663
-0.586817
-0.565727
-0.540459
-0.512284
-0.482332
-0.451600
-0.421143
-0.392134
-0.365547
-0.341529
-0.318872
-0.295063
-0.267123
-0.232947
-0.192457
-0.147883
-0.102934
-0.061260
-0.024976
0.006058
0.033942
0.061683
0.091925
0.126019
0.163771
0.203831
0.244433
0.284062
0.321719
0.356735
0.388397
0.415743
0.437737
0.453765
0.464158
0.470394
0.474760
0.479536
0.486053
0.494052
0.501696
0.506262
0.505219
0.497213
0.482534
0.462919
0.440819
0.418517
0.397460
0.378036
0.359814
0.342035
0.324058
0.305511
0.286150
0.265604
0.243272
0.218550
0.191301
0.162268
0.133110
0.105894
0.082258
0.062634
0.045959
0.030072
0.012651
-0.007704
-0.030731
-0.054482
-0.076037
-0.092683
-0.103009
-0.107442
-0.107993
-0.107382
-0.107949
-0.110817
-0.115567
-0.120462
-0.123050
-0.120845
-0.111850
-0.094832
-0.069458
-0.036414
0.002469
0.044237
0.085152
0.121414
0.150095
0.169919
0.181497
0.186790
0.187950
0.186022
0.180182
0.167955
0.146416
0.113780
0.070584
0.019843
-0.033823
-0.085557
-0.131470
-0.169179
-0.197692
-0.216944
-0.227441
-0.230201
-0.226947
-0.220216
-0.213117
-0.208643
-0.208769
-0.213765
-0.222120
-0.231173
-0.238165
-0.241234
-0.239930
-0.235098
-0.228318
-0.221272
-0.215397
-0.211953
-0.212278
-0.217784
-0.229283
-0.245632
-0.262177
-0.269769
-0.254951
-0.201495
-0.093045
0.083508
0.334285
0.654675
1.026341
1.416234
1.779067
2.063937
2.224225
2.228123
2.066389
1.754688
1.329982
0.842560
0.346534
-0.108566
-0.483706
-0.753709
-0.908714
-0.954206
-0.909457
-0.803979
-0.671978
-0.545713
-0.449437
-0.395606
-0.384362
-0.406132
-0.446221
-0.489767
-0.525605
-0.548173
-0.557393
-0.557017
-0.552319
-0.547964
-0.546705
-0.549118
-0.554259
-0.560766
-0.567831
-0.575577
-0.584714
-0.595750
-0.608262
-0.620680
-0.630722
-0.636265
-0.636212
-0.630948
-0.622199
-0.612366
-0.603589
-0.596941
-0.592060
-0.587364
-0.580703
-0.570133
-0.554479
-0.533508
-0.507763
-0.478269
-0.446303
-0.413273
-0.380606
-0.349510
-0.320604
-0.293545
-0.266899
-0.238429
-0.205782
-0.167331
-0.122808
-0.073428
-0.021457
0.030562
0.080552
0.127316
0.170535
0.210481
0.247703
0.282889
0.316895
0.350778
0.385594
0.421910
0.459268
0.495929
0.529179
0.556218
0.575255
0.586278
0.591065
0.592397
0.592874
0.593921
0.595406
0.596004
0.594028
0.588302
0.578638
0.565733
0.550632
0.534130
0.516513
0.497760
0.478001
0.457843
0.438290
0.420246
0.403896
0.388323
0.371671
0.351886
0.327707
0.299445
0.269099
0.239710
0.214184
0.194079
0.178939
0.166482
0.153575
0.137515
0.117044
0.092695
0.066413
0.040724
0.017881
-0.000660
-0.014350
-0.023394
-0.028548
-0.030999
-0.032254
-0.033887
-0.037057
-0.041850
-0.046760
-0.048700
-0.043765
-0.028624
-0.002026
0.034302
0.075862
0.116712
0.151393
0.176646
0.192215
0.200439
0.204840
0.208330
0.211794
0.213630
0.210372
0.198082
0.173877
0.137000
0.089079
0.033651
-0.024721
-0.081320
-0.131903
-0.173113
-0.202784
-0.220213
-0.226315
-0.223506
-0.215240
-0.205252
-0.196716
-0.191582
-0.190282
-0.191915
-0.194813
-0.197307
-0.198364
-0.197841
-0.196250
-0.194214
-0.191964
-0.189236
-0.185681
-0.181596
-0.178510
-0.179108
-0.186197
-0.200898
-0.220633
-0.237661
-0.238847
-0.206973
-0.123526
0.027478
0.255278
0.558500
0.922386
1.318061
1.704713
2.035119
2.263903
2.356659
2.297300
2.091256
1.763573
1.352814
0.903098
0.456800
0.049625
-0.291668
-0.549683
-0.716163
-0.791939
-0.787000
-0.719922
-0.615733
-0.501918
-0.403254
-0.336951
-0.309739
-0.317859
-0.349853
-0.391034
-0.428090
-0.452424
-0.461465
-0.457991
-0.448024
-0.438237
-0.433691
-0.436552
-0.446004
-0.459182
-0.472621
-0.483600
-0.490907
-0.494798
-0.496338
-0.496544
-0.495810
-0.493901
-0.490441
-0.485516
-0.479980
-0.475220
-0.472484
-0.472113
-0.473119
-0.473349
-0.470213
-0.461617
-0.446676
-0.425887
-0.400764
-0.373201
-0.344895
-0.317020
-0.290152
-0.264294
-0.238893
-0.212877
-0.184800
-0.153187
-0.117029
-0.076261
-0.032047
0.013333
0.057018
0.096430
0.130166
0.158576
0.183744
0.208806
0.236808
0.269571
0.307056
0.347542
0.388501
0.427675
0.463793
0.496584
0.526244
0.552777
0.575704
0.594320
0.608314
0.618317
0.625940
0.633138
0.641175
0.649722
0.656644
0.658726
0.653070
0.638545
0.616535
0.590572
0.565010
0.543339
0.526929
0.514752
0.504125
0.492050
0.476453
0.456792
0.433862
0.409076
0.383692
0.358390
0.333340
0.308604
0.284461
0.261381
0.239596
0.218617
0.197104
0.173310
0.145942
0.114988
0.082030
0.049810
0.021183
-0.002077
-0.020034
-0.034517
-0.048220
-0.063417
-0.080916
-0.099791
-0.117988
-0.133473
-0.145254
-0.153695
-0.159934
-0.164760
-0.167651
-0.166607
-0.158974
-0.142870
-0.118419
-0.088074
-0.055784
-0.025368
0.001098
0.024086
0.046208
0.070782
0.100035
0.133760
0.169007
0.200809
0.223540
0.232303
0.223938
0.197515
0.154439
0.098342
0.034798
-0.029312
-0.086956
-0.132494
-0.163141
-0.179663
-0.185898
-0.187154
-0.188155
-0.191404
-0.196680
-0.201816
-0.204310
-0.202914
-0.198381
-0.193030
-0.189395
-0.188764
-0.190470
-0.192336
-0.192042
-0.188648
-0.183492
-0.180000
-0.182467
-0.194202
-0.215551
-0.242349
-0.265265
-0.270313
-0.240516
-0.158454
-0.009390
0.215250
0.514271
0.873434
1.263587
1.641633
1.955645
2.154111
2.197367
2.067721
1.774627
1.353020
0.855531
0.341490
-0.133783
-0.526883
-0.810603
-0.975143
-1.027165
-0.987173
-0.885307
-0.755672
-0.630022
-0.532180
-0.474607
-0.457961
-0.473514
-0.507420
-0.545377
-0.576307
-0.594267
-0.598557
-0.592522
-0.581762
-0.572279
-0.568858
-0.573901
-0.586916
-0.604825
-0.623039
-0.636948
-0.643356
-0.641371
-0.632498
-0.619942
-0.607377
-0.597670
-0.592025
-0.589867
-0.589422
-0.588634
-0.585883
-0.580202
-0.571051
-0.557985
-0.540573
-0.518669
-0.492835
-0.464560
-0.435976
-0.409088
-0.384905
-0.362961
-0.341546
-0.318507
-0.292188
-0.261986
-0.228316
-0.192109
-0.154253
-0.115358
-0.075955
-0.036879
0.000571
0.035034
0.065926
0.094207
0.122428
0.153827
0.190793
0.233483
0.279358
0.323984
0.362814
0.393098
0.414947
0.431021
0.445047
0.459987
0.476812
0.494408
0.510485
0.522853
0.530333
0.532890
0.531104
0.525452
0.515966
0.502477
0.485244
0.465458
0.445187
0.426653
0.411187
0.398429
0.386291
0.371793
0.352426
0.327317
0.297627
0.265973
0.235242
0.207442
0.183138
0.161651
0.141768
0.122467
0.103246
0.083920
0.064159
0.043210
0.020094
-0.005748
-0.033742
-0.061862
-0.087026
-0.106147
-0.117411
-0.121119
-0.119621
-0.116321
-0.114281
-0.115119
-0.118639
-0.123203
-0.126469
-0.126116
-0.120264
-0.107587
-0.087292
-0.059216
-0.024142
0.015851
0.057399
0.096494
0.129674
0.155218
0.173662
0.187231
0.198389
0.208174
0.215170
0.215658
0.204938
0.179273
0.137621
0.082427
0.019130
-0.045346
-0.104435
-0.153348
-0.189657
-0.213083
-0.224896
-0.227314
-0.223108
-0.215342
-0.207100
-0.201068
-0.199032
-0.201460
-0.207425
-0.214986
-0.221955
-0.226709
-0.228705
-0.228446
-0.226974
-0.225219
-0.223636
-0.222444
-0.222285
-0.224780
-0.232260
-0.246330
-0.265542
-0.283092
-0.285733
-0.254786
-0.169463
-0.011899
0.227317
0.544414
0.919779
1.318395
1.694052
1.997110
2.184262
2.227575
2.119923
1.875129
1.523263
1.103302
0.655972
0.218768
-0.176402
-0.503938
-0.745174
-0.889910
-0.938600
-0.903830
-0.809452
-0.686546
-0.566921
-0.476131
-0.428353
-0.424735
-0.455441
-0.504316
-0.554429
-0.592751
-0.612864
-0.615347
-0.606155
-0.593743
-0.585900
-0.587255
-0.598187
-0.615396
-0.633779
-0.648738
-0.657900
-0.661571
-0.661900
-0.661366
-0.661464
-0.662234
-0.662743
-0.662044
-0.659959
-0.657186
-0.654699
-0.652868
-0.650883
-0.646884
-0.638763
-0.625221
-0.606514
-0.584499
-0.561920
-0.541274
-0.523788
-0.508967
-0.494918
-0.479207
-0.459819
-0.435739
-0.406977
-0.374134
-0.337906
-0.298856
-0.257578
-0.215074
-0.172939
-0.133060
-0.096876
-0.064602
-0.034926
-0.005401
0.026622
0.062949
0.103876
0.148171
0.193656
0.238028
0.279555
0.317384
0.351452
0.382107
0.409694
0.434335
0.456028
0.474940
0.491618
0.506896
0.521459
0.535306
0.547410
0.555875
0.558593
0.554207
0.542933
0.526805
0.509080
0.492989
0.480385
0.470981
0.462588
0.452229
0.437541
0.417815
0.394222
0.369207
0.345388
0.324463
0.306646
0.290810
0.275208
0.258285
0.239158
0.217586
0.193640
0.167445
0.139206
0.109495
0.079545
0.051261
0.026824
0.007955
-0.004846
-0.012708
-0.018147
-0.024207
-0.033333
-0.046490
-0.062877
-0.080326
-0.096098
-0.107735
-0.113627
-0.113163
-0.106505
-0.094163
-0.076672
-0.054590
-0.028780
-0.000693
0.027698
0.054428
0.078294
0.099386
0.118988
0.138778
0.159669
0.180844
0.199516
0.211558
0.212765
0.200184
0.172986
0.132618
0.082368
0.026595
-0.030070
-0.083375
-0.129874
-0.167166
-0.194027
-0.210512
-0.218027
-0.219201
-0.217412
-0.215930
-0.216945
-0.220874
-0.226289
-0.230578
-0.231147
-0.226692
-0.217964
-0.207624
-0.199163
-0.195348
-0.196932
-0.202315
-0.208363
-0.212056
-0.212172
-0.210197
-0.209900
-0.215523
-0.229066
-0.247568
-0.261396
-0.254348
-0.205839
-0.094921
0.094504
0.368189
0.716922
1.114218
1.517850
1.876067
2.137815
2.264382
2.238613
2.068281
1.782355
1.421800
1.028735
0.637978
0.273523
-0.050047
-0.323353
-0.538360
-0.687329
-0.765154
-0.773500
-0.723959
-0.637833
-0.541916
-0.461678
-0.414559
-0.406014
-0.429699
-0.471441
-0.515201
-0.548668
-0.566576
-0.570914
-0.568483
-0.567148
-0.572436
-0.585707
-0.604324
-0.623421
-0.638277
-0.646263
-0.647655
-0.645169
-0.642579
-0.643106
-0.648258
-0.657500
-0.668769
-0.679476
-0.687496
-0.691695
-0.691895
-0.688480
-0.682006
-0.673065
-0.662413
-0.651126
-0.640525
-0.631758
-0.625190
-0.619959
-0.614004
-0.604628
-0.589413
-0.567101
-0.538062
-0.504137
-0.467917
-0.431773
-0.397063
-0.363833
-0.331128
-0.297693
-0.262696
-0.226070
-0.188356
-0.150194
-0.111855
-0.073133
-0.033685
0.006460
0.046629
0.085732
0.122862
0.157930
0.191938
0.226698
0.264050
0.304892
0.348442
0.392144
0.432367
0.465685
0.490222
0.506430
0.516931
0.525475
0.535484
0.548815
0.565222
0.582690
0.598387
0.609763
0.615271
0.614500
0.607811
0.595825
0.579130
0.558381
0.534677
0.509859
0.486337
0.466373
0.451072
0.439664
0.429531
0.417113
0.399334
0.374922
0.345009
0.312715
0.281880
0.255502
0.234586
0.217895
0.202657
0.185851
0.165439
0.140999
0.113596
0.085112
0.057481
0.032194
0.010210
-0.007860
-0.021589
-0.030815
-0.035980
-0.038492
-0.040773
-0.045743
-0.055757
-0.071333
-0.090303
-0.107921
-0.118158
-0.115758
-0.098220
-0.066820
-0.026175
0.017477
0.058510
0.093686
0.122745
0.147691
0.171234
0.195195
0.219622
0.242909
0.262670
0.276745
0.283739
0.282859
0.273301
0.253794
0.222791
0.179414
0.124684
0.062332
-0.001378
-0.058936
-0.103582
-0.131280
-0.141928
-0.139350
-0.130032
-0.121000
-0.117567
-0.121718
-0.131742
-0.143236
-0.151127
-0.151870
-0.144908
-0.132772
-0.119778
-0.110002
-0.105494
-0.105632
-0.107849
-0.109305
-0.108605
-0.106677
-0.106419
-0.111321
-0.123656
-0.142866
-0.164622
-0.180710
-0.179651
-0.147784
-0.070659
0.065107
0.269138
0.543527
0.878459
1.248781
1.613826
1.922386
2.122915
2.176393
2.067425
1.809130
1.439653
1.011506
0.577872
0.180950
-0.153900
-0.417326
-0.610464
-0.738409
-0.806064
-0.817829
-0.780185
-0.704640
-0.608511
-0.512425
-0.435378
-0.389605
-0.377609
-0.392652
-0.422326
-0.453528
-0.476769
-0.488316
-0.489812
-0.486096
-0.482489
-0.482723
-0.488111
-0.497867
-0.510042
-0.522462
-0.533295
-0.541237
-0.545492
-0.545775
-0.542435
-0.536596
-0.530122
-0.525193
-0.523528
-0.525520
-0.529752
-0.533237
-0.532410
-0.524487
-0.508608
-0.486228
-0.460600
-0.435560
-0.414156
-0.397655
-0.385325
-0.374980
-0.363977
-0.350139
-0.332248
-0.310040
-0.283889
-0.254456
-0.222515
-0.188986
-0.155028
-0.121980
-0.091021
-0.062603
-0.035947
-0.008945
0.021296
0.057339
0.100134
0.148193
0.197691
0.243631
0.281692
0.310039
0.330270
0.346977
0.366023
0.392207
0.427321
0.469446
0.513739
0.554289
0.586205
0.607061
0.617215
0.619072
0.615798
0.610168
0.604024
0.598398
0.593943
0.591166
0.590200
0.590249
0.589233
0.584107
0.571935
0.551275
0.523122
0.490896
0.459389
0.433056
0.414300
0.402484
0.394139
0.384358
0.368819
0.345541
0.315572
0.282287
0.249675
0.220503
0.195296
0.172555
0.149973
0.125880
0.100142
0.074068
0.049467
0.027440
0.007617
-0.011714
-0.032641
-0.056354
-0.082275
-0.108087
-0.130674
-0.147480
-0.157590
-0.162053
-0.163350
-0.164333
-0.167137
-0.172477
-0.179486
-0.186018
-0.189207
-0.186086
-0.174200
-0.152175
-0.120194
-0.080270
-0.036126
0.007451
0.045773
0.075616
0.096282
0.109826
0.120214
0.131616
0.146454
0.164015
0.180228
0.188786
0.183252
0.159392
0.116862
0.059617
-0.005100
-0.068726
-0.123563
-0.164409
-0.189249
-0.199062
-0.197074
-0.187813
-0.176201
-0.166701
-0.162543
-0.165109
-0.173671
-0.185664
-0.197514
-0.205794
-0.208311
-0.204753
-0.196630
-0.186568
-0.177290
-0.170785
-0.168048
-0.169439
-0.175308
-0.186342
-0.203217
-0.225514
-0.250208
-0.270297
-0.274162
-0.246149
-0.168560
-0.024933
0.195731
0.494356
0.857722
1.256479
1.646930
1.977564
2.199561
2.278440
2.202805
1.986738
1.664789
1.281629
0.880614
0.495594
0.148361
-0.148802
-0.388364
-0.564124
-0.671282
-0.709625
-0.687273
-0.622011
-0.538580
-0.462649
-0.413944
-0.401421
-0.422288
-0.464876
-0.513865
-0.555667
-0.582180
-0.592001
-0.589288
-0.581157
-0.574771
-0.575076
-0.583738
-0.599316
-0.618351
-0.636853
-0.651647
-0.661119
-0.665238
-0.665020
-0.661859
-0.657080
-0.651835
-0.647195
-0.644199
-0.643704
-0.646024
-0.650575
-0.655763
-0.659275
-0.658743
-0.652558
-0.640495
-0.623884
-0.605182
-0.587074
-0.571436
-0.558585
-0.547178
-0.534829
-0.519128
-0.498571
-0.472978
-0.443284
-0.410963
-0.377453
-0.343865
-0.311000
-0.279471
-0.249708
-0.221722
-0.194802
-0.167410
-0.137528
-0.103400
-0.064338
-0.021136
0.024175
0.069132
0.111789
0.151281
0.187756
0.221804
0.253820
0.283694
0.311004
0.335512
0.357588
0.378212
0.398471
0.418820
0.438522
0.455664
0.467812
0.473083
0.471111
0.463446
0.453074
0.443206
0.435867
0.430996
0.426540
0.419516
0.407475
0.389625
0.367106
0.342386
0.318139
0.296173
0.276875
0.259351
0.242082
0.223700
0.203477
0.181340
0.157510
0.132058
0.104727
0.075228
0.043860
0.012070
-0.017508
-0.041739
-0.058189
-0.066280
-0.067781
-0.066329
-0.066155
-0.070553
-0.080775
-0.095772
-0.112828
-0.128671
-0.140485
-0.146394
-0.145377
-0.136924
-0.120869
-0.097607
-0.068524
-0.036229
-0.004215
0.024070
0.046421
0.062759
0.075227
0.087299
0.102143
0.120842
0.141277
0.158269
0.165078
0.155718
0.127158
0.080532
0.020915
-0.044168
-0.106849
-0.160853
-0.202605
-0.231343
-0.248464
-0.256597
-0.258803
-0.258044
-0.256856
-0.257061
-0.259497
-0.263858
-0.268818
-0.272519
-0.273336
-0.270640
-0.265188
-0.258898
-0.254057
-0.252270
-0.253702
-0.257030
-0.260222
-0.261793
-0.261867
-0.262330
-0.265765
-0.273398
-0.282849
-0.286695
-0.272556
-0.224836
-0.127670
0.031710
0.259792
0.554161
0.901604
1.277352
1.646188
1.966240
2.195566
2.300353
2.262356
2.082999
1.782610
1.395189
0.960873
0.518892
0.103039
-0.259968
-0.550418
-0.755499
-0.870179
-0.898770
-0.855834
-0.764933
-0.654644
-0.552616
-0.479536
-0.445103
-0.447331
-0.475256
-0.513868
-0.549410
-0.573281
-0.583519
-0.583810
-0.580795
-0.580880
-0.587749
-0.601372
-0.618649
-0.635204
-0.647418
-0.653831
-0.655393
-0.654666
-0.654472
-0.656669
-0.661552
-0.668034
-0.674419
-0.679304
-0.682111
-0.683024
-0.682431
-0.680350
-0.676231
-0.669294
-0.659150
-0.646287
-0.632060
-0.618098
-0.605424
-0.593725
-0.581237
-0.565390
-0.543952
-0.516076
-0.482707
-0.446141
-0.409012
-0.373247
-0.339490
-0.307202
-0.275247
-0.242560
-0.208516
-0.172852
-0.135302
-0.095303
-0.052055
-0.005016
0.045441
0.097607
0.148647
0.195463
0.235903
0.269746
0.298922
0.326756
0.356498
0.389841
0.426149
0.462778
0.496278
0.523823
0.544158
0.557695
0.565871
0.570255
0.571920
0.571352
0.568792
0.564639
0.559587
0.554374
0.549307
0.543865
0.536683
0.526020
0.510552
0.490119
0.466002
0.440533
0.416147
0.394346
0.375104
0.357042
0.338252
0.317314
0.293956
0.269031
0.243863
0.219413
0.195796
0.172466
0.148893
0.125234
0.102493
0.082019
0.064639
0.049985
0.036484
0.022106
0.005490
-0.013175
-0.032054
-0.048430
-0.059932
-0.065547
-0.065876
-0.062529
-0.057077
-0.050174
-0.041323
-0.029354
-0.013256
0.007122
0.030909
0.056643
0.083004
0.109376
0.135862
0.162743
0.189682
0.215162
0.236481
0.250359
0.253862
0.245205
0.224102
0.191617
0.149747
0.101062
0.048565
-0.004348
-0.054017
-0.096934
-0.130357
-0.152893
-0.164808
-0.167911
-0.165104
-0.159782
-0.155370
-0.155068
-0.161632
-0.176848
-0.200511
-0.229188
-0.255409
-0.268042
-0.254212
-0.202426
-0.105923
0.035047
0.213054
0.415651
0.629050
0.841818
1.047158
1.243162
1.431433
1.615012
1.796468
1.976601
2.153807
2.324076
2.481606
2.619878
2.732809
2.815412
2.863493
2.872402
2.835479
2.743221
2.584181
2.348001
2.030101
1.636606
1.187586
0.716729
0.266518
-0.120512
-0.412050
-0.594365
-0.675530
-0.682113
-0.650401
-0.615401
-0.601527
-0.618036
-0.660145
-0.714561
-0.766660
-0.806395
-0.830995
-0.844139
-0.852788
-0.863529
-0.880069
-0.902587
-0.928676
-0.955007
-0.978818
-0.998699
-1.014658
-1.027730
-1.039485
-1.051625
-1.065700
-1.082855
-1.103535
-1.127149
-1.151864
-1.174814
-1.192873
-1.203830
-1.207409
-1.205521
-1.201500
-1.198644
-1.198822
-1.201808
-1.205581
-1.207330
-1.204587
-1.195996
-1.181457
-1.161692
-1.137576
-1.109652
-1.078107
-1.043183
-1.005683
-0.967158
-0.929517
-0.894172
-0.861147
-0.828721
-0.793910
-0.753665
-0.706210
-0.651836
-0.592758
-0.532159
-0.472921
-0.416692
-0.363652
-0.312971
-0.263594
-0.214900
-0.166918
-0.120099
-0.074906
-0.031558
0.009886
0.049168
0.085512
0.117632
0.144205
0.164605
0.179499
0.190858
0.201237
0.212595
0.225270
0.237704
0.247116
0.250813
0.247466
0.237695
0.223729
0.208376
0.193911
0.181399
0.170692
0.160944
0.151257
0.141082
0.130178
0.118274
0.104773
0.088799
0.069685
0.047635
0.024127
0.001730
-0.016745
-0.029416
-0.036257
-0.039234
-0.041509
-0.046017
-0.054120
-0.064980
-0.075977
-0.083922
-0.086437
-0.082827
-0.074076
-0.062081
-0.048616
-0.034592
-0.019946
-0.004062
0.013669
0.033540
0.055581
0.079780
0.106259
0.135239
0.166813
0.200608
0.235486
0.269460
0.299950
0.324366
0.340806
0.348544
0.348040
0.340441
0.326834
0.307662
0.282656
0.251326
0.213744
0.171178
0.126213
0.082260
0.042679
0.009933
-0.014867
-0.031858
-0.041913
-0.046064
-0.045223
-0.040303
-0.032564
-0.023823
-0.016266
-0.011840
-0.011506
-0.014746
-0.019677
-0.023785
-0.024997
-0.022586
-0.017529
-0.012164
-0.009366
-0.011559
-0.019934
-0.034029
-0.051601
-0.068542
-0.078567
-0.072659
-0.038618
0.038541
0.174544
0.381762
0.663513
1.008289
1.386301
1.750827
2.045654
2.217556
2.230193
2.074517
1.771590
1.366602
0.916358
0.475003
0.083002
-0.237453
-0.480431
-0.650151
-0.754469
-0.800969
-0.796589
-0.749622
-0.671753
-0.578196
-0.485421
-0.407558
-0.353301
-0.324758
-0.318538
-0.328251
-0.347122
-0.369674
-0.392189
-0.412315
-0.428473
-0.439558
-0.445083
-0.445524
-0.442463
-0.438265
-0.435333
-0.435294
-0.438513
-0.444160
-0.450731
-0.456731
-0.461130
-0.463374
-0.463072
-0.459687
-0.452561
-0.441321
-0.426408
-0.409311
-0.392243
-0.377292
-0.365423
-0.355846
-0.346165
-0.333293
-0.314768
-0.289808
-0.259602
-0.226717
-0.193965
-0.163316
-0.135323
-0.109186
-0.083314
-0.056040
-0.026151
0.006941
0.043376
0.083097
0.125918
0.171292
0.217964
0.263862
0.306510
0.343932
0.375634
0.403110
0.429480
0.458328
0.492247
0.531762
0.575115
0.618945
0.659443
0.693423
0.718922
0.735313
0.743124
0.743794
0.739467
0.732761
0.726371
0.722448
0.721878
0.723762
0.725459
0.723316
0.713914
0.695346
0.667987
0.634431
0.598623
0.564533
0.534917
0.510633
0.490705
0.472993
0.455084
0.435018
0.411639
0.384579
0.354048
0.320679
0.285523
0.250100
0.216278
0.185829
0.159783
0.137931
0.118802
0.100210
0.080145
0.057580
0.032825
0.007322
-0.016963
-0.038216
-0.055239
-0.067568
-0.075302
-0.078819
-0.078632
-0.075498
-0.070666
-0.065947
-0.063321
-0.064114
-0.068133
-0.073271
-0.075918
-0.072122
-0.059024
-0.035963
-0.004744
0.031034
0.067311
0.100966
0.130691
0.156988
0.181379
0.205262
0.228963
0.251376
0.270213
0.282611
0.285734
0.277187
0.255320
0.219582
0.171003
0.112583
0.049301
-0.012531
-0.066484
-0.107457
-0.132886
-0.143291
-0.141999
-0.134186
-0.125608
-0.121463
-0.125659
-0.140494
-0.166511
-0.202267
-0.243910
-0.284783
-0.315504
-0.324982
-0.302428
-0.239920
-0.134565
0.010617
0.187552
0.385343
0.592931
0.801132
1.003480
1.196060
1.376976
1.546038
1.704727
1.856089
2.004067
2.152150
2.301657
2.450311
2.591636
2.715358
2.808623
2.857631
2.849385
2.773440
2.623548
2.398985
2.105227
1.753790
1.361436
0.949145
0.541054
0.162879
-0.160874
-0.411152
-0.579032
-0.668811
-0.697573
-0.690652
-0.674378
-0.668863
-0.683595
-0.717278
-0.761369
-0.805338
-0.841260
-0.866117
-0.881505
-0.891569
-0.900552
-0.911133
-0.924107
-0.939137
-0.955813
-0.974270
-0.995030
-1.018302
-1.043286
-1.067986
-1.089771
-1.106459
-1.117410
-1.124002
-1.129177
-1.136222
-1.147359
-1.162860
-1.181045
-1.199127
-1.214430
-1.225438
-1.232233
-1.236198
-1.239182
-1.242517
-1.246349
-1.249599
-1.250544
-1.247714
-1.240606
-1.229825
-1.216605
-1.202044
-1.186537
-1.169717
-1.150875
-1.129551
-1.105911
-1.080647
-1.054449
-1.027348
-0.998378
-0.965843
-0.928145
-0.884755
-0.836769
-0.786717
-0.737694
-0.692239
-0.651454
-0.614720
-0.580057
-0.544951
-0.507236
-0.465689
-0.420095
-0.370905
-0.318810
-0.264611
-0.209455
-0.155189
-0.104446
-0.060198
-0.024826
0.000878
0.018242
0.030388
0.041107
0.053411
0.068420
0.085084
0.100830
0.112757
0.118803
0.118354
0.112113
0.101457
0.087737
0.071920
0.054720
0.036996
0.020008
0.005191
-0.006524
-0.015455
-0.023456
-0.033416
-0.048128
-0.069003
-0.095299
-0.124268
-0.152224
-0.176010
-0.194149
-0.207153
-0.216929
-0.225679
-0.234849
-0.244596
-0.253928
-0.261396
-0.265975
-0.267649
-0.267385
-0.266468
-0.265580
-0.264142
-0.260349
-0.251896
-0.237101
-0.215840
-0.189807
-0.161900
-0.135025
-0.110903
-0.089470
-0.069172
-0.047991
-0.024689
0.000312
0.024762
0.045136
0.057649
0.059289
0.048483
0.025204
-0.009323
-0.053034
-0.103264
-0.156773
-0.209750
-0.258064
-0.297894
-0.326604
-0.343528
-0.350241
-0.350067
-0.346926
-0.343953
-0.342509
-0.342075
-0.341049
-0.338036
-0.332924
-0.327176
-0.323181
-0.323009
-0.327219
-0.334337
-0.341320
-0.344846
-0.342882
-0.335864
-0.326961
-0.321189
-0.323589
-0.336965
-0.359859
-0.385316
-0.400743
-0.388931
-0.330207
-0.205709
-0.001637
0.286046
0.647523
1.057087
1.474508
1.850431
2.135098
2.288282
2.287525
2.132104
1.841698
1.450705
1.000688
0.533671
0.087886
-0.304133
-0.616550
-0.831845
-0.943509
-0.958649
-0.898369
-0.794314
-0.681549
-0.589947
-0.537268
-0.526461
-0.547958
-0.585605
-0.623571
-0.651551
-0.666655
-0.672049
-0.673642
-0.676669
-0.683600
-0.693913
-0.705318
-0.715461
-0.723198
-0.728946
-0.734192
-0.740582
-0.749107
-0.759724
-0.771486
-0.782983
-0.792766
-0.799557
-0.802275
-0.800118
-0.792821
-0.781028
-0.766454
-0.751576
-0.738837
-0.729658
-0.723764
-0.719179
-0.712950
-0.702239
-0.685270
-0.661706
-0.632349
-0.598443
-0.561049
-0.520884
-0.478611
-0.435245
-0.392211
-0.350883
-0.311858
-0.274441
-0.236735
-0.196380
-0.151588
-0.101981
-0.048795
0.005628
0.058809
0.109087
0.156109
0.200645
0.243906
0.286764
0.329321
0.370991
0.410914
0.448356
0.482846
0.514007
0.541274
0.563744
0.580362
0.590432
0.594161
0.592882
0.588698
0.583671
0.578958
0.574386
0.568672
0.560164
0.547709
0.531229
0.511757
0.490937
0.470288
0.450622
0.431891
0.413474
0.394623
0.374760
0.353471
0.330288
0.304534
0.275492
0.242887
0.207441
0.171106
0.136684
0.106877
0.083185
0.065243
0.050995
0.037666
0.023053
0.006472
-0.011110
-0.027771
-0.041716
-0.052108
-0.059225
-0.063970
-0.067178
-0.069178
-0.069792
-0.068666
-0.065607
-0.060677
-0.053967
-0.045224
-0.033617
-0.017861
0.003290
0.030386
0.062742
0.098340
0.134263
0.167503
0.195707
0.217433
0.231806
0.237836
0.233972
0.218313
0.189537
0.148094
0.096987
0.041541
-0.011920
-0.058012
-0.093979
-0.120381
-0.140437
-0.158292
-0.176901
-0.196352
-0.213255
-0.221350
-0.213007
-0.180991
-0.119961
-0.027388
0.096214
0.247729
0.422465
0.615448
0.822456
1.040347
1.266468
1.497503
1.728368
1.951829
2.159104
2.341262
2.490897
2.603537
2.678399
2.718436
2.729812
2.721022
2.701793
2.681788
2.669093
2.668586
2.680512
2.699743
2.716149
2.716089
2.684618
2.607726
2.474084
2.276184
2.011224
1.682239
1.299616
0.882380
0.457953
0.059121
-0.282024
-0.541660
-0.710548
-0.796297
-0.820356
-0.810878
-0.794295
-0.788807
-0.801789
-0.831224
-0.869723
-0.909027
-0.943296
-0.970454
-0.991765
-1.010373
-1.029603
-1.051654
-1.076978
-1.104362
-1.131578
-1.156318
-1.177086
-1.193761
-1.207644
-1.220995
-1.236221
-1.254983
-1.277518
-1.302453
-1.327193
-1.348776
-1.364858
-1.374465
-1.378252
-1.378174
-1.376681
-1.375744
-1.376128
-1.377228
-1.377491
-1.375140
-1.368860
-1.358143
-1.343235
-1.324809
-1.303576
-1.280037
-1.254438
-1.226892
-1.197479
-1.166180
-1.132632
-1.095963
-1.054956
-1.008606
-0.956812
-0.900813
-0.843063
-0.786537
-0.733694
-0.685564
-0.641383
-0.598930
-0.555392
-0.508300
-0.456166
-0.398681
-0.336585
-0.271382
-0.205051
-0.139847
-0.078156
-0.022327
0.025674
0.064788
0.095398
0.119549
0.140548
0.161949
0.186283
0.214103
0.243816
0.272409
0.296747
0.314854
0.326604
0.333573
0.338190
0.342645
0.348073
0.354317
0.360271
0.364538
0.366071
0.364566
0.360459
0.354600
0.347804
0.340524
0.332828
0.324664
0.316257
0.308333
0.301960
0.298018
0.296581
0.296591
0.296067
0.292847
0.285561
0.274420
0.261430
0.249873
0.243213
0.243865
0.252337
0.267102
0.285207
0.303317
0.318714
0.329880
0.336506
0.339124
0.338670
0.336335
0.333745
0.333227
0.337738
0.350180
0.372280
0.403560
0.441041
0.479998
0.515578
0.544591
0.566641
0.584027
0.600438
0.619020
0.640670
0.663278
0.682215
0.691864
0.687520
0.666914
0.630848
0.582846
0.528098
0.472185
0.420029
0.375277
0.340123
0.315362
0.300532
0.294037
0.293350
0.295422
0.297369
0.297296
0.294894
0.291470
0.289274
0.290389
0.295651
0.304153
0.313549
0.321077
0.324776
0.324365
0.321343
0.318238
0.317292
0.319144
0.322169
0.322912
0.317650
0.304621
0.286183
0.270100
0.269428
0.300850
0.381761
0.526671
0.743480
1.030075
1.371735
1.740069
2.094564
2.387607
2.572857
2.615282
2.499854
2.235815
1.854831
1.403669
0.934047
0.493025
0.116529
-0.173113
-0.366499
-0.465073
-0.479077
-0.425914
-0.328394
-0.212095
-0.101652
-0.016577
0.032192
0.043787
0.026259
-0.006951
-0.041762
-0.067790
-0.080804
-0.082656
-0.079064
-0.076476
-0.079392
-0.089082
-0.103835
-0.120218
-0.134568
-0.144133
-0.147610
-0.145173
-0.138184
-0.128774
-0.119387
-0.112306
-0.109154
-0.110433
-0.115220
-0.121173
-0.124947
-0.123024
-0.112785
-0.093496
-0.066778
-0.036223
-0.006215
0.019590
0.039467
0.054022
0.065704
0.077730
0.092955
0.113132
0.138754
0.169328
0.203782
0.240734
0.278568
0.315444
0.349431
0.378913
0.403189
0.422992
0.440624
0.459509
0.483204
0.514170
0.552777
0.596986
0.642949
0.686323
0.723801
0.754175
0.778481
0.799184
0.818850
0.838986
0.859586
0.879543
0.897609
0.913287
0.927092
0.940020
0.952586
0.964072
0.972482
0.975312
0.970746
0.958632
0.940701
0.919851
0.898857
0.879141
0.860227
0.840102
0.816292
0.787125
0.752597
0.714479
0.675639
0.638935
0.606149
0.577395
0.551192
0.525116
0.496722
0.464351
0.427499
0.386713
0.343222
0.298615
0.254721
0.213565
0.177147
0.146933
0.123207
0.104694
0.088791
0.072420
0.053174
0.030245
0.004732
-0.020798
-0.043289
-0.060301
-0.070776
-0.075203
-0.075220
-0.072913
-0.070157
-0.068277
-0.068069
-0.070010
-0.074419
-0.081395
-0.090506
-0.100431
-0.108842
-0.112757
-0.109394
-0.097231
-0.076807
-0.050819
-0.023363
0.001453
0.020954
0.034767
0.044753
0.054016
0.065432
0.080261
0.097359
0.113244
0.122968
0.121486
0.105099
0.072547
0.025428
-0.032136
-0.094442
-0.155437
-0.209875
-0.254155
-0.286701
-0.307942
-0.319972
-0.326080
-0.330204
-0.336353
-0.348002
-0.367492
-0.395537
-0.430974
-0.470829
-0.510709
-0.545403
-0.569552
-0.578249
-0.567519
-0.534654
-0.478364
-0.398705
-0.296781
-0.174312
-0.033249
0.124364
0.296223
0.479392
0.669998
0.863265
1.054020
1.237572
1.410634
1.571843
1.721552
1.860908
1.990605
2.109835
2.215880
2.304351
2.369750
2.405892
2.405949
2.362316
2.266795
2.111596
1.891239
1.604983
1.258998
0.867540
0.452580
0.041648
-0.336008
-0.654448
-0.896187
-1.055970
-1.141777
-1.172429
-1.172368
-1.165230
-1.168316
-1.189634
-1.228147
-1.276661
-1.325954
-1.368584
-1.401211
-1.424959
-1.444050
-1.463475
-1.486707
-1.514356
-1.544230
-1.572682
-1.596508
-1.614501
-1.627969
-1.640068
-1.654345
-1.673211
-1.697055
-1.724351
-1.752572
-1.779337
-1.803161
-1.823545
-1.840593
-1.854553
-1.865653
-1.874292
-1.881327
-1.888108
-1.896092
-1.906157
-1.917982
-1.929857
-1.939146
-1.943254
-1.940697
-1.931746
-1.918308
-1.903112
-1.888569
-1.875853
-1.864572
-1.853121
-1.839465
-1.821932
-1.799679
-1.772723
-1.741667
-1.707334
-1.670505
-1.631854
-1.592062
-1.551959
-1.512486
-1.474390
-1.437714
-1.401375
-1.363174
-1.320437
-1.271154
-1.215131
-1.154558
-1.093578
-1.036923
-0.988184
-0.948512
-0.916346
-0.888253
-0.860442
-0.830275
-0.797125
-0.762297
-0.728155
-0.696960
-0.670004
-0.647406
-0.628565
-0.612883
-0.600313
-0.591396
-0.586811
-0.586707
-0.590292
-0.595947
-0.601881
-0.606944
-0.611184
-0.615818
-0.622645
-0.633157
-0.647772
-0.665572
-0.684678
-0.703045
-0.719233
-0.732770
-0.744008
-0.753679
-0.762479
-0.770870
-0.779074
-0.787155
-0.795031
-0.802366
-0.808372
-0.811741
-0.810901
-0.804651
-0.792892
-0.777022
-0.759693
-0.743869
-0.731562
-0.722813
-0.715425
-0.705588
-0.689161
-0.663078
-0.626354
-0.580370
-0.528384
-0.474551
-0.422870
-0.376457
-0.337265
-0.306123
-0.282883
-0.266564
-0.255573
-0.248156
-0.243086
-0.240319
-0.241243
-0.248221
-0.263511
-0.287962
-0.320059
-0.355760
-0.389286
-0.414644
-0.427323
-0.425541
-0.410548
-0.385936
-0.356266
-0.325627
-0.296700
-0.270591
-0.247291
-0.226328
-0.207193
-0.189348
-0.171947
-0.153601
-0.132531
-0.107160
-0.076944
-0.043010
-0.008265
0.023254
0.047679
0.062938
0.070236
0.075023
0.087252
0.120885
0.192660
0.319957
0.517573
0.793382
1.143486
1.548316
1.971664
2.364362
2.672897
2.851162
2.871747
2.732758
2.457664
2.088454
1.674959
1.264352
0.894119
0.589738
0.365941
0.229132
0.178755
0.207056
0.298421
0.430160
0.575845
0.710673
0.816948
0.887476
0.925549
0.941782
0.949336
0.959495
0.979066
1.009965
1.050362
1.096307
