-0.224130
-0.130959
-0.058665
-0.023497
-0.032303
-0.079184
-0.146332
-0.210250
-0.251050
-0.260057
-0.241719
-0.209303
-0.177373
-0.155336
-0.144956
-0.142114
-0.140917
-0.137628
-0.132619
-0.130008
-0.135648
-0.154380
-0.187344
-0.230184
-0.273214
-0.304146
-0.312726
-0.295240
-0.256549
-0.208476
-0.165220
-0.137894
-0.130591
-0.139515
-0.155320
-0.167473
-0.168677
-0.157569
-0.138745
-0.120375
-0.110619
-0.114351
-0.131371
-0.156637
-0.182279
-0.200546
-0.206452
-0.198934
-0.179975
-0.152326
-0.117433
-0.075210
-0.026036
0.026466
0.074340
0.107575
0.119107
0.109643
0.088926
0.071938
0.071782
0.093349
0.131593
0.175302
0.213538
0.240288
0.254606
0.257397
0.248634
0.227867
0.197213
0.163372
0.135974
0.122969
0.126402
0.141575
0.159994
0.174007
0.180417
0.181295
0.181810
0.186311
0.194813
0.202081
0.200344
0.184473
0.156493
0.126161
0.106673
0.107754
0.130192
0.164853
0.196541
0.210599
0.199124
0.164235
0.117161
0.073669
0.047892
0.047295
0.070795
0.110330
0.154566
0.192795
0.217591
0.225807
0.218226
0.198507
0.171868
0.143783
0.118847
0.100037
0.088530
0.084042
0.085401
0.091005
0.099025
0.107569
0.115085
0.120878
0.125175
0.128279
0.129196
0.124998
0.111992
0.088437
0.057060
0.025327
0.002755
-0.003563
0.007301
0.029411
0.052993
0.069666
0.076965
0.079552
0.086262
0.104345
0.133913
0.165988
0.185976
0.181335
0.149176
0.098989
0.048447
0.014572
0.005432
0.016955
0.036159
0.048514
0.045352
0.027757
0.005339
-0.009336
-0.007837
0.009286
0.032812
0.050441
0.054478
0.046759
0.037493
0.038491
0.055008
0.081515
0.104304
0.109448
0.091140
0.055272
0.016271
-0.010575
-0.016641
-0.003312
0.020037
0.041625
0.053076
0.052617
0.044537
0.035764
0.031689
0.033578
0.038920
0.044246
0.048354
0.053466
0.063326
0.079535
0.099081
0.115369
0.122585
0.120534
0.116367
0.121536
0.145547
0.190519
0.250303
0.315021
0.378196
0.441937
0.516818
0.616375
0.749131
0.912324
1.090708
1.261379
1.402567
1.502080
1.561002
1.590675
1.604719
1.610583
1.605255
1.577134
1.512511
1.402638
1.247586
1.055730
0.840674
0.618314
0.405139
0.216661
0.064716
-0.045772
-0.118298
-0.162943
-0.191996
-0.215631
-0.239746
-0.266138
-0.293727
-0.319625
-0.339937
-0.350820
-0.349996
-0.338178
-0.319517
-0.300583
-0.288157
-0.286668
-0.296297
-0.312570
-0.327807
-0.334092
-0.326730
-0.306762
-0.281369
-0.261801
-0.259421
-0.281117
-0.325779
-0.383607
-0.439131
-0.476957
-0.487541
-0.470224
-0.432561
-0.387063
-0.347187
-0.323770
-0.322215
-0.340650
-0.369803
-0.395425
-0.403177
-0.384378
-0.339955
-0.280442
-0.221754
-0.178730
-0.159609
-0.163880
-0.183920
-0.208813
-0.228154
-0.234651
-0.225555
-0.203251
-0.174627
-0.148566
-0.131989
-0.126585
-0.128635
-0.132211
-0.133164
-0.130625
-0.125145
-0.115773
-0.099359
-0.073195
-0.038793
-0.003228
0.023777
0.035391
0.031925
0.020706
0.011651
0.011525
0.020484
0.032692
0.040138
0.037103
0.022846
0.001388
-0.021067
-0.039407
-0.051773
-0.059609
-0.065943
-0.073190
-0.081993
-0.091852
-0.102968
-0.117524
-0.138776
-0.168010
-0.201666
-0.231446
-0.248277
-0.247873
-0.233956
-0.216662
-0.207041
-0.211225
-0.227718
-0.248846
-0.264915
-0.268582
-0.257603
-0.235338
-0.209338
-0.188582
-0.180018
-0.185369
-0.199667
-0.212855
-0.214411
-0.198956
-0.169720
-0.137661
-0.116525
-0.116379
-0.138843
-0.176130
-0.214126
-0.238135
-0.238919
-0.216524
-0.180130
-0.143905
-0.120778
-0.117129
-0.130804
-0.153024
-0.172769
-0.181236
-0.174356
-0.152889
-0.121109
-0.085519
-0.054131
-0.035497
-0.036436
-0.058740
-0.096855
-0.138726
-0.170249
-0.181355
-0.170525
-0.145328
-0.118688
-0.102818
-0.103922
-0.120313
-0.144608
-0.168404
-0.186475
-0.198105
-0.205267
-0.209494
-0.210037
-0.204555
-0.191490
-0.172050
-0.150394
-0.132056
-0.121668
-0.121122
-0.128901
-0.140862
-0.152106
-0.158849
-0.159080
-0.151712
-0.135225
-0.107294
-0.066082
-0.012417
0.048939
0.110525
0.166076
0.215326
0.266635
0.334909
0.434739
0.571857
0.737747
0.911227
1.067016
1.186927
1.267099
1.316789
1.349467
1.371860
1.377857
1.351060
1.274485
1.141696
0.962840
0.762044
0.567537
0.400022
0.265651
0.157191
0.062081
-0.027901
-0.111337
-0.179101
-0.221609
-0.236261
-0.230243
-0.217226
-0.210447
-0.216748
-0.235140
-0.260186
-0.287153
-0.314971
-0.345065
-0.377619
-0.408840
-0.431761
-0.440066
-0.432055
-0.412011
-0.388317
-0.369728
-0.361837
-0.365178
-0.375442
-0.385552
-0.388780
-0.381728
-0.365912
-0.347128
-0.332737
-0.328014
-0.333400
-0.344138
-0.352481
-0.351159
-0.336189
-0.307986
-0.271063
-0.233191
-0.204140
-0.193338
-0.206191
-0.240433
-0.285012
-0.323233
-0.339335
-0.325319
-0.284529
-0.230211
-0.179813
-0.147697
-0.139518
-0.150663
-0.169241
-0.181997
-0.180216
-0.162874
-0.135746
-0.107376
-0.084377
-0.068614
-0.057323
-0.045479
-0.028785
-0.005872
0.021124
0.047569
0.068155
0.078489
0.076006
0.060551
0.035127
0.006373
-0.016379
-0.024133
-0.012411
0.015724
0.049912
0.076415
0.084002
0.068845
0.035890
-0.003922
-0.038777
-0.060454
-0.065936
-0.056235
-0.034192
-0.003107
0.033173
0.069469
0.099145
0.115654
0.115353
0.099756
0.075164
0.049464
0.028490
0.015002
0.010843
0.019366
0.044525
0.086316
0.136341
0.178121
0.193362
0.170689
0.111500
0.029556
-0.054930
-0.123056
-0.162937
-0.171314
-0.151383
-0.108877
-0.048823
0.025533
0.111966
0.208314
0.312619
0.424071
0.543213
0.670268
0.802081
0.929707
1.038667
1.112308
1.136719
1.104891
1.018643
0.888111
0.729351
0.560813
0.399576
0.258262
0.143222
0.054177
-0.014601
-0.071477
-0.123477
-0.172557
-0.214157
-0.239386
-0.240309
-0.215724
-0.174061
-0.131335
-0.104891
-0.106241
-0.136737
-0.187955
-0.245887
-0.296292
-0.328811
-0.338955
-0.328225
-0.302942
-0.272110
-0.244682
-0.226946
-0.220820
-0.223566
-0.228891
-0.229009
-0.217136
-0.189973
-0.149717
-0.104770
-0.068109
-0.052864
-0.066401
-0.105847
-0.157972
-0.204040
-0.227229
-0.218746
-0.179910
-0.120147
-0.052934
0.008136
0.052219
0.073149
0.070682
0.050684
0.023783
0.002496
-0.002424
0.014692
0.052447
0.102453
0.151629
0.186135
0.195724
0.177126
0.135383
0.082538
0.033870
0.002801
-0.003606
0.013364
0.045419
0.081148
0.110447
0.127404
0.130722
0.122324
0.105717
0.085275
0.066304
0.054840
0.056214
0.072507
0.100213
0.129814
0.148260
0.143827
0.111410
0.055717
-0.009449
-0.065978
-0.098396
-0.099763
-0.073716
-0.032021
0.010660
0.042088
0.055877
0.052386
0.037418
0.019503
0.006679
0.003758
0.010907
0.023991
0.036529
0.042617
0.039568
0.028913
0.014977
0.001890
-0.008784
-0.017972
-0.026821
-0.034478
-0.038078
-0.035029
-0.025642
-0.013800
-0.005004
-0.003127
-0.008129
-0.016168
-0.021876
-0.021267
-0.013593
-0.001369
0.011000
0.018897
0.018713
0.008562
-0.011193
-0.037645
-0.065663
-0.089105
-0.102591
-0.103276
-0.092075
-0.073779
-0.055555
-0.043946
-0.041647
-0.046020
-0.050570
-0.048840
-0.038491
-0.023094
-0.010444
-0.008185
-0.019186
-0.039375
-0.059482
-0.069857
-0.065667
-0.049503
-0.029905
-0.016618
-0.015151
-0.023555
-0.033199
-0.033405
-0.017892
0.010282
0.038481
0.050035
0.033049
-0.012682
-0.075058
-0.135673
-0.178394
-0.195370
-0.187819
-0.162637
-0.127926
-0.090064
-0.053122
-0.019940
0.006380
0.021611
0.020873
0.000654
-0.038250
-0.088621
-0.137573
-0.170723
-0.177891
-0.157336
-0.116661
-0.070509
-0.036234
-0.028689
-0.055201
-0.112155
-0.184949
-0.252277
-0.293725
-0.297610
-0.265379
-0.210393
-0.151741
-0.106205
-0.082218
-0.078277
-0.085709
-0.093723
-0.094097
-0.083692
-0.064357
-0.040883
-0.018290
0.000259
0.014000
0.023501
0.028846
0.028489
0.019830
0.001378
-0.024827
-0.052322
-0.072038
-0.076609
-0.065162
-0.045385
-0.030559
-0.032244
-0.052842
-0.083129
-0.107052
-0.111161
-0.092751
-0.061571
-0.034200
-0.024798
-0.037668
-0.065356
-0.092653
-0.104073
-0.091238
-0.056973
-0.014314
0.019213
0.029443
0.011756
-0.027366
-0.073849
-0.112306
-0.131679
-0.127855
-0.103041
-0.063284
-0.015677
0.034073
0.083659
0.135676
0.198012
0.282545
0.401917
0.564883
0.771496
1.009892
1.256608
1.481630
1.657658
1.770309
1.823813
1.837773
1.835414
1.829548
1.814664
1.769944
1.671172
1.504238
1.272920
0.998034
0.710140
0.440331
0.212809
0.040894
-0.073663
-0.138985
-0.169919
-0.183961
-0.196783
-0.218413
-0.251463
-0.291948
-0.331940
-0.362767
-0.378058
-0.376456
-0.363368
-0.350411
-0.351595
-0.377140
-0.427962
-0.494223
-0.559215
-0.606497
-0.626218
-0.617553
-0.587108
-0.545474
-0.504117
-0.473270
-0.460265
-0.467901
-0.493348
-0.528538
-0.562483
-0.584807
-0.589076
-0.574507
-0.545536
-0.509702
-0.474886
-0.447009
-0.428870
-0.420198
-0.418512
-0.420306
-0.422351
-0.422986
-0.422927
-0.424734
-0.430688
-0.440233
-0.449150
-0.451689
-0.444484
-0.429249
-0.411838
-0.398035
-0.389113
-0.380583
-0.365353
-0.339300
-0.305356
-0.273008
-0.253088
-0.250902
-0.261918
-0.272801
-0.267390
-0.234507
-0.173694
-0.096332
-0.021815
0.029471
0.043517
0.017472
-0.039997
-0.112595
-0.182444
-0.235536
-0.264612
-0.269092
-0.252952
-0.222063
-0.182348
-0.139350
-0.098702
-0.066287
-0.047240
-0.044133
-0.055539
-0.075989
-0.097366
-0.111079
-0.110305
-0.091868
-0.057413
-0.013442
0.030179
0.063116
0.077960
0.072655
0.050698
0.018911
-0.015977
-0.049826
-0.081059
-0.108333
-0.128113
-0.134746
-0.123624
-0.095306
-0.057354
-0.022176
-0.001901
-0.003060
-0.023668
-0.053750
-0.078750
-0.084450
-0.061995
-0.011763
0.055157
0.118984
0.156942
0.151245
0.096419
0.002599
-0.107157
-0.204765
-0.266866
-0.282366
-0.255051
-0.200832
-0.141183
-0.095485
-0.075083
-0.080931
-0.105077
-0.134725
-0.156946
-0.162409
-0.147260
-0.113118
-0.065886
-0.014253
0.031723
0.062392
0.071196
0.057648
0.028605
-0.003951
-0.028248
-0.038333
-0.036488
-0.030912
-0.030223
-0.038404
-0.053297
-0.069153
-0.081013
-0.087697
-0.091520
-0.095465
-0.100438
-0.104995
-0.107550
-0.108782
-0.111623
-0.118375
-0.127146
-0.130651
-0.118902
-0.084753
-0.029451
0.034959
0.088446
0.110800
0.091414
0.036071
-0.033572
-0.088544
-0.105289
-0.076103
-0.012032
0.062939
0.123257
0.153269
0.153617
0.139725
0.133198
0.150804
0.197506
0.267678
0.353070
0.451250
0.568107
0.712687
0.888366
1.086842
1.289132
1.472747
1.620100
1.722800
1.780015
1.793491
1.763777
1.690181
1.573363
1.417497
1.230180
1.020913
0.800011
0.578570
0.368393
0.180764
0.024397
-0.096180
-0.181039
-0.234251
-0.262740
-0.274657
-0.277319
-0.275375
-0.270425
-0.262603
-0.253042
-0.245085
-0.243069
-0.249690
-0.264286
-0.283451
-0.303265
-0.321166
-0.336149
-0.347608
-0.354280
-0.354535
-0.348043
-0.337547
-0.329010
-0.329307
-0.342492
-0.367063
-0.396233
-0.421053
-0.434241
-0.432500
-0.416629
-0.390261
-0.358349
-0.325910
-0.296970
-0.273559
-0.255022
-0.238300
-0.219616
-0.197044
-0.172420
-0.151019
-0.138728
-0.138289
-0.147044
-0.157683
-0.161517
-0.152446
-0.129772
-0.098785
-0.068748
-0.048833
-0.043681
-0.050909
-0.062034
-0.066266
-0.055160
-0.026007
0.017104
0.064656
0.104868
0.127521
0.127113
0.104304
0.065429
0.020495
-0.019604
-0.045896
-0.053435
-0.042300
-0.017445
0.012486
0.037343
0.048393
0.041176
0.017085
-0.017141
-0.051810
-0.077475
-0.087739
-0.080911
-0.060292
-0.033252
-0.009304
0.002575
-0.003145
-0.026427
-0.061544
-0.099390
-0.131184
-0.151551
-0.159397
-0.156630
-0.146245
-0.131369
-0.115544
-0.103161
-0.098689
-0.104609
-0.119411
-0.137421
-0.151055
-0.154309
-0.145361
-0.126962
-0.104914
-0.085976
-0.076106
-0.079071
-0.095155
-0.120346
-0.146748
-0.164556
-0.164912
-0.142582
-0.097831
-0.037412
0.025670
0.074392
0.092378
0.069991
0.009346
-0.074685
-0.158899
-0.220203
-0.244179
-0.229704
-0.187942
-0.136961
-0.094811
-0.073620
-0.076397
-0.097226
-0.124607
-0.146498
-0.154906
-0.148112
-0.130069
-0.107921
-0.089138
-0.079131
-0.079566
-0.087581
-0.096416
-0.097834
-0.085737
-0.059398
-0.024460
0.009197
0.031866
0.038326
0.029449
0.010243
-0.013934
-0.039905
-0.066165
-0.090453
-0.108251
-0.114070
-0.104631
-0.081313
-0.050008
-0.018741
0.005200
0.017210
0.016291
0.005499
-0.008084
-0.014728
-0.005553
0.022662
0.064026
0.104535
0.128407
0.126728
0.102771
0.069821
0.042508
0.027661
0.021156
0.012696
-0.005432
-0.032233
-0.058741
-0.074555
-0.075118
-0.064641
-0.053182
-0.050436
-0.060528
-0.080712
-0.103957
-0.123169
-0.134349
-0.137275
-0.133979
-0.126531
-0.115795
-0.101923
-0.085911
-0.070539
-0.059197
-0.052672
-0.046118
-0.029462
0.007179
0.065491
0.134250
0.192945
0.223321
0.222234
0.207502
0.212644
0.273167
0.411479
0.627354
0.897372
1.182645
1.441148
1.639849
1.762514
1.811078
1.800970
1.752734
1.683189
1.599258
1.496536
1.363026
1.186562
0.963017
0.701832
0.426204
0.167228
-0.045951
-0.195736
-0.281110
-0.316010
-0.322320
-0.321042
-0.325451
-0.338586
-0.355351
-0.367696
-0.370274
-0.363867
-0.354872
-0.351202
-0.356948
-0.369061
-0.378316
-0.374487
-0.353129
-0.320020
-0.290067
-0.280388
-0.300928
-0.347984
-0.404710
-0.448671
-0.462474
-0.441994
-0.398329
-0.352875
-0.327921
-0.336801
-0.377732
-0.434101
-0.481305
-0.497323
-0.472258
-0.412545
-0.338160
-0.274480
-0.242455
-0.250804
-0.292885
-0.349314
-0.395415
-0.410497
-0.384991
-0.322759
-0.238516
-0.152439
-0.084409
-0.049310
-0.053687
-0.093897
-0.156405
-0.221086
-0.267315
-0.280730
-0.257644
-0.205297
-0.138650
-0.075864
-0.034037
-0.025184
-0.052215
-0.106147
-0.167127
-0.210851
-0.218651
-0.186366
-0.126838
-0.063987
-0.021145
-0.009602
-0.023423
-0.043244
-0.046850
-0.020655
0.033818
0.101014
0.158357
0.185279
0.170591
0.115897
0.034211
-0.055529
-0.135613
-0.195045
-0.231016
-0.246471
-0.245946
-0.232297
-0.205973
-0.166893
-0.117551
-0.065186
-0.021156
0.002728
-0.000969
-0.032001
-0.082296
-0.138565
-0.186161
-0.212992
-0.212845
-0.187252
-0.144777
-0.097439
-0.055974
-0.026618
-0.010946
-0.007919
-0.015776
-0.032043
-0.051814
-0.066217
-0.063270
-0.032107
0.030635
0.115546
0.200028
0.254679
0.254678
0.191002
0.075619
-0.062326
-0.187494
-0.270968
-0.298653
-0.272573
-0.206119
-0.116749
-0.019700
0.075243
0.163697
0.244699
0.318859
0.388221
0.457571
0.535040
0.629636
0.745647
0.877144
1.007006
1.112295
1.173097
1.179203
1.130769
1.034031
0.896835
0.727775
0.538309
0.343873
0.161202
0.003343
-0.123576
-0.219467
-0.286807
-0.327957
-0.345121
-0.342025
-0.325230
-0.303756
-0.287093
-0.282462
-0.292424
-0.313855
-0.338941
-0.357956
-0.362705
-0.349262
-0.319190
-0.279210
-0.239511
-0.210932
-0.201413
-0.212816
-0.239554
-0.270043
-0.290577
-0.290047
-0.263579
-0.213809
-0.149489
-0.081923
-0.020417
0.031480
0.077164
0.124833
0.182829
0.254433
0.333978
0.405420
0.444459
0.425606
0.334221
0.179025
-0.003686
-0.160800
-0.245075
-0.236808
-0.151074
-0.026996
0.092724
0.179339
0.224509
0.235770
0.226987
0.210288
0.192641
0.176486
0.161979
0.148854
0.137154
0.127054
0.118338
0.110003
0.100251
0.086932
0.068310
0.043927
0.015247
-0.014286
-0.040067
-0.057994
-0.066305
-0.066535
-0.062842
-0.060030
-0.061442
-0.067863
-0.077733
-0.088045
-0.095093
-0.094796
-0.083104
-0.057152
-0.017115
0.032244
0.081786
0.120667
0.140674
0.140022
0.124308
0.103766
0.088115
0.081551
0.080236
0.073472
0.048478
-0.002750
-0.077567
-0.161444
-0.233109
-0.273898
-0.276081
-0.245363
-0.196563
-0.145698
-0.103392
-0.072901
-0.052571
-0.039866
-0.033752
-0.034184
-0.039869
-0.046521
-0.047092
-0.033865
-0.001323
0.051311
0.118457
0.187899
0.242565
0.264967
0.243629
0.178754
0.083607
-0.020033
-0.110151
-0.171644
-0.198477
-0.190913
-0.151596
-0.084637
0.001295
0.089079
0.153491
0.168565
0.119674
0.013725
-0.119382
-0.236527
-0.298367
-0.285212
-0.204082
-0.084373
0.034470
0.116901
0.141618
0.106263
0.026912
-0.066617
-0.138947
-0.159843
-0.115040
-0.013313
0.114128
0.223370
0.274007
0.245306
0.144844
0.005041
-0.131048
-0.227582
-0.268475
-0.259147
-0.218379
-0.166266
-0.115020
-0.066638
-0.017363
0.034412
0.081834
0.109216
0.098813
0.041450
-0.055194
-0.166007
-0.256346
-0.294239
-0.260966
-0.156383
0.000946
0.177082
0.328868
0.413583
0.401636
0.288301
0.098214
-0.121272
-0.315552
-0.439600
-0.469140
-0.404029
-0.266046
-0.093618
0.066188
0.169128
0.187376
0.120567
-0.001773
-0.129603
-0.210811
-0.210566
-0.122637
0.031687
0.214695
0.386779
0.518261
0.595674
0.622625
0.616570
0.602839
0.607276
0.649033
0.735326
0.859718
1.004520
1.146385
1.262835
1.337446
1.362493
1.339009
1.274802
1.181067
1.068563
0.944674
0.812633
0.673182
0.527545
0.379806
0.237299
0.108963
0.002749
-0.076632
-0.128823
-0.157628
-0.169768
-0.173157
-0.175312
-0.182207
-0.197478
-0.221992
-0.254246
-0.291801
-0.332978
-0.377294
-0.424020
-0.470117
-0.509604
-0.535210
-0.541174
-0.525346
-0.489710
-0.439727
-0.383196
-0.328795
-0.284179
-0.253988
-0.238817
-0.236027
-0.242063
-0.254560
-0.272344
-0.293133
-0.311117
-0.317339
-0.303898
-0.269702
-0.223611
-0.182053
-0.161697
-0.171024
-0.205577
-0.249664
-0.283714
-0.293515
-0.276907
-0.245133
-0.218542
-0.218289
-0.256815
-0.330771
-0.420160
-0.495491
-0.530501
-0.514116
-0.455110
-0.377073
-0.306856
-0.262826
-0.248603
-0.254413
-0.264185
-0.264061
-0.248039
-0.218670
-0.183548
-0.150301
-0.122981
-0.101453
-0.083421
-0.067269
-0.053759
-0.045650
-0.045656
-0.053982
-0.066663
-0.075713
-0.071552
-0.047237
-0.002893
0.052079
0.100935
0.125861
0.116491
0.076784
0.026116
-0.007595
-0.000886
0.052072
0.133624
0.208535
0.239649
0.205281
0.109115
-0.022004
-0.149929
-0.239836
-0.271243
-0.242559
-0.169561
-0.079499
-0.002643
0.036879
0.028670
-0.020384
-0.088344
-0.146022
-0.167784
-0.141181
-0.071625
0.019675
0.103792
0.155449
0.163635
0.136899
0.099824
0.080742
0.096138
0.140727
0.190132
0.215358
0.200061
0.149510
0.085989
0.034662
0.009489
0.007172
0.010762
-0.001288
-0.046396
-0.132899
-0.259127
-0.415213
-0.586426
-0.756984
-0.912953
-1.042941
-1.136702
-1.183753
-1.174689
-1.106035
-0.986331
-0.838943
-0.697887
-0.596610
-0.554227
-0.566115
-0.604293
-0.628133
-0.600620
-0.502705
-0.339774
-0.138526
0.063252
0.229305
0.335247
0.373243
0.349985
0.279936
0.178205
0.057186
-0.072033
-0.196225
-0.298666
-0.362085
-0.374639
-0.335304
-0.255291
-0.154573
-0.055354
0.024244
0.073557
0.089235
0.073156
0.030873
-0.028229
-0.090217
-0.137775
-0.154638
-0.132068
-0.074015
0.002475
0.073005
0.115883
0.122006
0.099589
0.071066
0.063321
0.095727
0.171436
0.275812
0.382599
0.464976
0.506552
0.507456
0.482894
0.455054
0.442404
0.451807
0.477370
0.506349
0.528569
0.543882
0.563227
0.602347
0.671407
0.766397
0.867573
0.946440
0.977920
0.951476
0.875699
0.774414
0.676560
0.604764
0.567840
0.560299
0.568325
0.578252
0.582564
0.580450
0.573743
0.561909
0.540006
0.501218
0.442373
0.368717
0.294333
0.237059
0.210212
0.215645
0.242035
0.269472
0.278228
0.257782
0.212098
0.158499
0.120023
0.114207
0.143493
0.192328
0.233175
0.239013
0.195970
0.109171
-0.001369
-0.112169
-0.208436
-0.290654
-0.373058
-0.475656
-0.613821
-0.789792
-0.989149
-1.183393
-1.337590
-1.420307
-1.412452
-1.312290
-1.135393
-0.909904
-0.668883
-0.442458
-0.252389
-0.110380
-0.019515
0.022993
0.023403
-0.009969
-0.067369
-0.137940
-0.210132
-0.272463
-0.314793
-0.330054
-0.315929
-0.275697
-0.217762
-0.153931
-0.096937
-0.057691
-0.042797
-0.053099
-0.083939
-0.127147
-0.173824
-0.216700
-0.251429
-0.276908
-0.294777
-0.307939
-0.318255
-0.324556
-0.322621
-0.307703
-0.278178
-0.237799
-0.194936
-0.159253
-0.137701
-0.131540
-0.135143
-0.136752
-0.121519
-0.077043
-0.000266
0.097536
0.191553
0.251586
0.254624
0.195544
0.090154
-0.030888
-0.133771
-0.192941
-0.197573
-0.151804
-0.070411
0.027104
0.121726
0.198561
0.249081
0.272135
0.273410
0.263016
0.251824
0.248162
0.256395
0.277660
0.311585
0.357268
0.412473
0.471424
0.523052
0.551990
0.543410
0.490243
0.399005
0.290261
0.192138
0.129285
0.112665
0.135556
0.177655
0.214483
0.226665
0.204905
0.150068
0.070743
-0.019320
-0.103532
-0.165675
-0.194453
-0.187648
-0.153147
-0.105559
-0.060038
-0.026594
-0.007538
0.001389
0.007501
0.017206
0.033183
0.053504
0.072832
0.085112
0.086502
0.076991
0.059654
0.037887
0.012463
-0.019338
-0.061292
-0.113518
-0.168481
-0.211010
-0.223637
-0.195125
-0.127544
-0.037668
0.048415
0.104891
0.115648
0.079915
0.012467
-0.061303
-0.113820
-0.124742
-0.088152
-0.014452
0.074492
0.155259
0.213180
0.247724
0.270378
0.296842
0.338468
0.397734
0.469599
0.546870
0.625490
0.706023
0.790415
0.876445
0.954026
1.006563
1.017491
0.978779
0.896437
0.789206
0.680402
0.586993
0.511850
0.443322
0.362493
0.254805
0.120647
-0.020742
-0.137602
-0.200963
-0.201797
-0.159715
-0.116211
-0.114416
-0.176414
-0.291592
-0.422947
-0.527231
-0.576804
-0.571160
-0.533158
-0.493936
-0.475940
-0.483152
-0.502603
-0.514705
-0.505622
-0.474741
-0.433917
-0.400092
-0.386161
-0.395087
-0.419684
-0.447017
-0.464069
-0.461543
-0.434710
-0.382583
-0.307442
-0.215687
-0.119179
-0.035206
0.016362
0.018723
-0.035044
-0.136855
-0.263332
-0.382128
-0.463609
-0.493127
-0.477477
-0.441163
-0.413403
-0.412363
-0.435300
-0.460256
-0.458524
-0.411101
-0.320291
-0.210195
-0.115706
-0.065711
-0.069321
-0.112231
-0.164649
-0.196071
-0.189135
-0.146126
-0.086023
-0.034504
-0.012071
-0.025690
-0.067272
-0.118844
-0.161056
-0.180471
-0.172589
-0.140606
-0.092191
-0.036650
0.016701
0.059591
0.086154
0.094648
0.088604
0.076239
0.067634
0.070519
0.086720
0.111303
0.134991
0.148329
0.145032
0.122840
0.082272
0.025179
-0.045272
-0.123127
-0.198293
-0.257255
-0.286544
-0.277585
-0.230460
-0.154630
-0.066474
0.015127
0.073590
0.098727
0.089315
0.053403
0.005990
-0.035397
-0.055798
-0.047066
-0.010186
0.044877
0.102054
0.144420
0.160222
0.146895
0.110719
0.062449
0.012225
-0.032337
-0.063998
-0.072815
-0.046465
0.024761
0.141605
0.293365
0.461850
0.629511
0.786400
0.931553
1.068225
1.196136
1.305512
1.376623
1.385684
1.314729
1.161046
0.941847
0.691820
0.453989
0.266902
0.152897
0.112055
0.124102
0.156870
0.177369
0.161370
0.099057
-0.004059
-0.130770
-0.259071
-0.369752
-0.451518
-0.501779
-0.523969
-0.524123
-0.508893
-0.485114
-0.459559
-0.437895
-0.423285
-0.415809
-0.413259
-0.412692
-0.411592
-0.407944
-0.399590
-0.383861
-0.358327
-0.322539
-0.279599
-0.236097
-0.199809
-0.176112
-0.165327
-0.163128
-0.164352
-0.167831
-0.178523
-0.204600
-0.250859
-0.312919
-0.376560
-0.423215
-0.438447
-0.418460
-0.371240
-0.312285
-0.257665
-0.217875
-0.194917
-0.183271
-0.173713
-0.158058
-0.132788
-0.100241
-0.067049
-0.040571
-0.024934
-0.018477
-0.013942
-0.001567
0.026053
0.069475
0.120581
0.164749
0.186519
0.176363
0.135383
0.075686
0.016209
-0.024201
-0.033568
-0.010636
0.035767
0.091423
0.143009
0.182692
0.208771
0.222591
0.224302
0.210757
0.177291
0.122180
0.050395
-0.026424
-0.094058
-0.141085
-0.162164
-0.157889
-0.132547
-0.091964
-0.042484
0.009410
0.057650
0.097424
0.125781
0.141607
0.145204
0.138189
0.124183
0.109831
0.104753
0.119139
0.159190
0.222577
0.296827
0.362186
0.398044
0.390176
0.335960
0.245959
0.141723
0.050745
-0.000033
0.009359
0.086980
0.226848
0.410599
0.612948
0.809321
0.982533
1.125548
1.239420
1.328201
1.393929
1.434060
1.441686
1.407472
1.322254
1.180190
0.982721
0.742308
0.483267
0.237258
0.034035
-0.108182
-0.187422
-0.215564
-0.211172
-0.192227
-0.172070
-0.158703
-0.155488
-0.161624
-0.172469
-0.181138
-0.182300
-0.176980
-0.174950
-0.191414
-0.237984
-0.312707
-0.396238
-0.458436
-0.472968
-0.431566
-0.349312
-0.258057
-0.192318
-0.175325
-0.211070
-0.284278
-0.367295
-0.431086
-0.456084
-0.438278
-0.388082
-0.323587
-0.262684
-0.218122
-0.196431
-0.198984
-0.223079
-0.262493
-0.308297
-0.350623
-0.380937
-0.393579
-0.385634
-0.355716
-0.303473
-0.231255
-0.147172
-0.066535
-0.008801
0.009893
-0.015125
-0.073330
-0.142419
-0.197275
-0.219746
-0.204650
-0.160060
-0.102708
-0.050772
-0.016645
-0.002281
0.000788
0.006371
0.025852
0.062156
0.109229
0.157064
0.198188
0.230523
0.254873
0.270096
0.270970
0.251215
0.209561
0.153772
0.098711
0.058814
0.039899
0.036235
0.035186
0.026044
0.006627
-0.016533
-0.033384
-0.036374
-0.023480
0.002424
0.036204
0.073165
0.110582
0.147367
0.181806
0.208559
0.217527
0.196984
0.140779
0.055741
-0.036509
-0.106796
-0.132284
-0.109097
-0.055322
-0.001736
0.024392
0.012827
-0.026091
-0.068539
-0.089628
-0.074226
-0.021905
0.054386
0.133969
0.196117
0.227726
0.228651
0.212313
0.200583
0.214817
0.267445
0.358543
0.478786
0.616188
0.761900
0.911767
1.063816
1.214520
1.356785
1.480833
1.577138
1.639414
1.665748
1.656965
1.612944
1.529148
1.396272
1.204948
0.954420
0.660505
0.356712
0.085373
-0.118132
-0.239852
-0.292307
-0.307309
-0.320674
-0.356826
-0.420357
-0.497346
-0.564429
-0.600611
-0.596416
-0.556991
-0.498862
-0.442808
-0.406299
-0.398217
-0.417020
-0.452266
-0.488697
-0.511690
-0.512458
-0.491204
-0.456817
-0.422749
-0.400421
-0.393040
-0.393282
-0.387030
-0.362320
-0.319006
-0.272706
-0.248736
-0.267773
-0.331522
-0.418249
-0.492382
-0.523008
-0.500023
-0.438578
-0.370317
-0.327502
-0.328785
-0.372753
-0.440673
-0.505903
-0.545319
-0.547909
-0.517191
-0.467046
-0.413526
-0.366918
-0.327760
-0.288327
-0.238526
-0.173370
-0.098474
-0.030502
0.008684
0.002236
-0.051980
-0.137713
-0.225301
-0.283255
-0.291015
-0.247206
-0.169921
-0.088868
-0.032582
-0.016495
-0.037693
-0.078829
-0.118461
-0.141808
-0.146416
-0.140765
-0.137674
-0.146635
-0.169093
-0.198718
-0.225757
-0.242453
-0.246420
-0.240606
-0.230682
-0.221750
-0.215883
-0.211159
-0.202224
-0.182369
-0.147002
-0.097745
-0.045247
-0.008223
-0.007376
-0.055766
-0.150307
-0.269713
-0.381177
-0.452985
-0.466674
-0.422876
-0.338978
-0.241112
-0.154830
-0.097912
-0.076762
-0.086595
-0.115151
-0.148908
-0.179420
-0.206571
-0.236649
-0.276203
-0.325605
-0.376619
-0.415632
-0.430427
-0.416262
-0.377835
-0.326545
-0.275230
-0.233454
-0.205396
-0.190443
-0.185239
-0.185780
-0.188791
-0.192301
-0.195575
-0.198521
-0.200753
-0.200723
-0.195544
-0.181924
-0.158041
-0.125604
-0.091005
-0.064635
-0.058004
-0.079286
-0.128985
-0.198002
-0.269649
-0.325199
-0.350607
-0.341533
-0.304878
-0.256627
-0.216714
-0.202141
-0.220378
-0.265856
-0.321897
-0.367881
-0.388291
-0.378909
-0.347151
-0.307061
-0.272259
-0.250580
-0.242439
-0.242581
-0.243297
-0.237114
-0.218084
-0.182094
-0.127038
-0.053326
0.035420
0.131939
0.225873
0.306218
0.366159
0.408940
0.451108
0.519029
0.637731
0.816591
1.040118
1.270677
1.463348
1.585568
1.630857
1.619115
1.583667
1.552591
1.534555
1.516115
1.470576
1.372465
1.209795
0.988901
0.731468
0.466951
0.224289
0.025370
-0.118893
-0.209786
-0.259331
-0.286294
-0.310175
-0.344328
-0.390269
-0.435864
-0.459643
-0.441106
-0.373288
-0.271185
-0.170171
-0.112996
-0.130324
-0.224387
-0.365078
-0.501970
-0.587152
-0.597338
-0.543788
-0.465248
-0.408205
-0.404945
-0.460157
-0.551643
-0.643269
-0.702553
-0.713946
-0.682179
-0.625785
-0.565861
-0.516580
-0.481652
-0.456785
-0.435106
-0.411914
-0.386657
-0.362072
-0.341826
-0.328324
-0.321782
-0.320749
-0.323381
-0.328352
-0.334524
-0.339488
-0.338214
-0.323596
-0.289941
-0.238412
-0.181215
-0.140447
-0.139655
-0.190915
-0.284815
-0.390952
-0.470711
-0.495600
-0.460088
-0.381542
-0.288798
-0.207633
-0.151467
-0.120460
-0.106671
-0.100617
-0.095739
-0.089751
-0.083757
-0.080470
-0.082385
-0.090357
-0.102960
-0.116893
-0.128240
-0.133874
-0.132262
-0.123469
-0.108715
-0.090047
-0.070302
-0.052908
-0.040789
-0.034342
-0.029783
-0.019856
0.002308
0.037937
0.079525
0.112609
0.122096
0.099873
0.049493
-0.014628
-0.073048
-0.108940
-0.113606
-0.087766
-0.039423
0.019357
0.075046
0.114570
0.127339
0.107717
0.057249
-0.014626
-0.092435
-0.159122
-0.201687
-0.215494
-0.204990
-0.180479
-0.152774
-0.128598
-0.108753
-0.089444
-0.065740
-0.035449
-0.001595
0.027883
0.043285
0.037641
0.010061
-0.033803
-0.084113
-0.130322
-0.164010
-0.180366
-0.178578
-0.161481
-0.134452
-0.103710
-0.074668
-0.051037
-0.034724
-0.025800
-0.021980
-0.017993
-0.006044
0.021717
0.069196
0.132757
0.200291
0.253983
0.275883
0.254064
0.187092
0.085403
-0.030860
-0.137124
-0.211341
-0.240320
-0.223052
-0.169865
-0.098079
-0.026164
0.031432
0.067263
0.081172
0.078364
0.066388
0.052259
0.040630
0.033290
0.029750
0.028385
0.027579
0.026484
0.025218
0.024586
0.025674
0.029785
0.038808
0.055530
0.083248
0.124494
0.179461
0.245266
0.316987
0.390596
0.466559
0.551794
0.657900
0.795499
0.967250
1.163629
1.364499
1.546241
1.690852
1.792053
1.855255
1.891961
1.912312
1.919823
1.910313
1.874456
1.802202
1.687282
1.530289
1.339159
1.126706
0.906424
0.689021
0.481924
0.291784
0.127429
-0.000193
-0.082367
-0.118832
-0.121168
-0.110172
-0.108190
-0.130756
-0.181894
-0.254509
-0.334440
-0.405812
-0.455856
-0.478042
-0.472834
-0.446099
-0.406209
-0.361391
-0.318347
-0.282014
-0.255641
-0.240651
-0.236471
-0.240846
-0.250630
-0.262559
-0.273703
-0.281889
-0.286418
-0.288716
-0.292194
-0.301147
-0.319222
-0.347933
-0.385239
-0.424541
-0.455281
-0.466113
-0.449704
-0.406464
-0.344785
-0.277721
-0.218238
-0.175518
-0.153398
-0.150376
-0.160150
-0.172494
-0.175258
-0.158039
-0.116533
-0.055257
0.013286
0.073015
0.110231
0.118460
0.100323
0.066121
0.030032
0.005244
-0.000463
0.012827
0.037817
0.063640
0.080703
0.084205
0.074724
0.056308
0.034018
0.012681
-0.002987
-0.008116
0.001436
0.026952
0.064652
0.105128
0.135625
0.144966
0.129160
0.094460
0.055219
0.026705
0.016678
0.020995
0.026325
0.018357
-0.009741
-0.053659
-0.100616
-0.135990
-0.149941
-0.140988
-0.115473
-0.083625
-0.054213
-0.030478
-0.009496
0.014710
0.046227
0.083609
0.119817
0.145783
0.155342
0.148617
0.132208
0.116905
0.115091
0.139402
0.202213
0.314211
0.480949
0.698394
0.950069
1.208212
1.439495
1.613564
1.711301
1.729657
1.681240
1.588837
1.477212
1.365555
1.263353
1.170402
1.079732
0.981434
0.866080
0.727402
0.564298
0.382059
0.192432
0.012024
-0.141228
-0.253015
-0.317400
-0.338999
-0.331192
-0.311101
-0.293915
-0.289118
-0.299560
-0.322584
-0.351876
-0.379355
-0.397236
-0.400417
-0.388674
-0.367517
-0.346698
-0.336362
-0.342191
-0.361861
-0.385075
-0.398008
-0.390605
-0.363170
-0.328341
-0.306535
-0.316323
-0.364345
-0.440346
-0.520615
-0.578391
-0.595635
-0.569855
-0.513026
-0.444384
-0.381746
-0.335583
-0.307634
-0.293259
-0.285368
-0.277774
-0.266841
-0.251473
-0.232232
-0.210387
-0.187257
-0.163870
-0.140867
-0.118649
-0.097666
-0.078606
-0.062196
-0.048595
-0.036743
-0.024263
-0.008251
0.013294
0.040139
0.069279
0.095473
0.112676
0.115939
0.103232
0.076531
0.041541
0.005906
-0.023561
-0.043383
-0.054361
-0.060374
-0.065645
-0.072090
-0.078308
-0.080803
-0.076632
-0.065870
-0.052535
-0.043411
-0.045268
-0.061740
-0.091402
-0.128102
-0.163392
-0.189780
-0.203211
-0.203813
-0.194929
-0.181195
-0.166708
-0.154054
-0.144333
-0.137756
-0.134144
-0.132962
-0.133031
-0.132399
-0.128872
-0.121206
-0.110271
-0.099216
-0.092179
-0.092097
-0.098962
-0.109676
-0.119634
-0.124993
-0.124278
-0.118572
-0.110548
-0.103111
-0.098320
-0.096826
-0.097791
-0.099246
-0.098895
-0.095184
-0.088229
-0.080044
-0.073721
-0.071808
-0.074775
-0.080624
-0.086016
-0.088292
-0.087108
-0.084659
-0.084350
-0.088760
-0.098151
-0.110333
-0.121835
-0.129574
-0.132109
-0.129971
-0.125141
-0.120054
-0.116610
-0.115586
-0.116600
-0.118539
-0.120185
-0.120709
-0.119855
-0.117811
-0.114980
-0.111852
-0.109036
-0.107258
-0.107168
-0.109016
-0.112488
-0.116856
-0.121358
-0.125473
-0.128893
-0.131260
-0.131976
-0.130312
-0.125818
-0.118713
-0.109940
-0.100844
-0.092685
-0.086256
-0.081745
-0.078799
-0.076728
-0.074723
-0.072075
-0.068435
-0.064065
-0.059909
-0.057247
-0.057031
-0.059358
-0.063522
-0.068608
-0.074072
-0.079799
-0.085627
-0.090891
-0.094473
-0.095432
-0.093742
-0.090566
-0.087827
-0.087273
-0.089620
-0.094258
-0.099648
-0.104116
-0.106544
-0.106661
-0.104958
-0.102391
-0.100002
-0.098522
-0.098123
-0.098477
-0.099110
-0.099785
-0.100551
-0.101419
-0.101989
-0.101485
-0.099258
-0.095373
-0.090767
-0.086833
-0.084782
-0.085208
-0.088053
-0.092738
-0.098117
-0.102142
-0.101622
-0.092652
-0.071901
-0.038197
0.006601
0.058083
0.110966
0.161235
0.208126
0.255568
0.312615
0.392063
0.506648
0.663464
0.858941
1.077413
1.294877
1.486557
1.634405
1.730782
1.777150
1.779678
1.744849
1.677155
1.579022
1.451859
1.297129
1.117112
0.915735
0.699625
0.478863
0.266511
0.076435
-0.079978
-0.196802
-0.274893
-0.320968
-0.344942
-0.356799
-0.364266
-0.371944
-0.381659
-0.393369
-0.406074
-0.418543
-0.429815
-0.439426
-0.447327
-0.453639
-0.458539
-0.462334
-0.465548
-0.468744
-0.472110
-0.475164
-0.476911
-0.476464
-0.473736
-0.469676
-0.465827
-0.463475
-0.462961
-0.463608
-0.464224
-0.463752
-0.461664
-0.458028
-0.453418
-0.448819
-0.445476
-0.444503
-0.446310
-0.450142
-0.454114
-0.455872
-0.453569
-0.446638
-0.435953
-0.423357
-0.410854
-0.399891
-0.390995
-0.383774
-0.377160
-0.369776
-0.360399
-0.348420
-0.334058
-0.318166
-0.301685
-0.285085
-0.268133
-0.250113
-0.230301
-0.208383
-0.184586
-0.159543
-0.134115
-0.109313
-0.086260
-0.066018
-0.049254
-0.035968
-0.025544
-0.017198
-0.010544
-0.005861
-0.003827
-0.004879
-0.008680
-0.014105
-0.019762
-0.024678
-0.028691
-0.032357
-0.036519
-0.041813
-0.048351
-0.055632
-0.062675
-0.068301
-0.071551
-0.072103
-0.070510
-0.068026
-0.066020
-0.065287
-0.065761
-0.066861
-0.068200
-0.070071
-0.073288
-0.078440
-0.085000
-0.090791
-0.092096
-0.084401
-0.063644
-0.027769
0.021766
0.079040
0.133999
0.174460
0.189387
0.172237
0.122969
0.048024
-0.041406
-0.132081
-0.211780
-0.272312
-0.311739
-0.334763
-0.350764
-0.370238
-0.401322
-0.447820
-0.508956
-0.580132
-0.653934
-0.721223
-0.772442
-0.799148
-0.795590
-0.760194
-0.696769
-0.614885
-0.528540
-0.452719
-0.398727
-0.370336
-0.362724
-0.364796
-0.363751
-0.349793
-0.319087
-0.274140
-0.221979
-0.171273
-0.129719
-0.102458
-0.091662
-0.096890
-0.115740
-0.144474
-0.178504
-0.212883
-0.243008
-0.265521
-0.279037
-0.284213
-0.283051
-0.277870
-0.270540
-0.262310
-0.253994
-0.246102
-0.238711
-0.231254
-0.222557
-0.211210
-0.196114
-0.176833
-0.153578
-0.126928
-0.097575
-0.066285
-0.033946
-0.001447
0.030632
0.062273
0.093888
0.125890
0.158306
0.190781
0.222937
0.254783
0.286809
0.319692
0.353843
0.389167
0.425250
0.461790
0.498891
0.536906
0.575964
0.615576
0.654635
0.691800
0.726000
0.756759
0.784153
0.808478
0.829833
0.847844
0.861615
0.869833
0.871017
0.863904
0.847917
0.823510
0.792151
0.755870
0.716580
0.675585
0.633526
0.590713
0.547476
0.504238
0.461363
0.419030
0.377332
0.336479
0.296889
0.259062
0.223335
0.189796
0.158441
0.129463
0.103346
0.080587
0.061219
0.044546
0.029367
0.014556
-0.000424
-0.015400
-0.029741
-0.042729
-0.053750
-0.062296
-0.067934
-0.070461
-0.070209
-0.068217
-0.066080
-0.065519
-0.067848
-0.073441
-0.081142
-0.087709
-0.087739
-0.074657
-0.042985
0.008810
0.076404
0.150211
0.218882
0.274524
0.317243
0.356750
0.409858
0.494391
0.621641
0.790455
0.985713
1.182137
1.351961
1.473205
1.535165
1.539311
1.496057
1.419449
1.322132
1.212193
1.092378
0.961332
0.816105
0.655102
0.480607
0.300013
0.125084
-0.030802
-0.156595
-0.247121
-0.304603
-0.337333
-0.356124
-0.370361
-0.385532
-0.403044
-0.421754
-0.439852
-0.456010
-0.469554
-0.480176
-0.487748
-0.492393
-0.494544
-0.494746
-0.493314
-0.490183
-0.485145
-0.478279
-0.470185
-0.461777
-0.453765
-0.446205
-0.438475
-0.429670
-0.419142
-0.406826
-0.393243
-0.379253
-0.365756
-0.353404
-0.342387
-0.332368
-0.322710
-0.312958
-0.303298
-0.294573
-0.287723
-0.282996
-0.279521
-0.275605
-0.269631
-0.260988
-0.250478
