0.009055
-0.004214
-0.011750
-0.010103
0.000649
0.017192
0.034518
0.047916
0.054577
0.054237
0.048750
0.040937
0.033304
0.027170
0.022561
0.018798
0.015416
0.012777
0.011984
0.014065
0.018931
0.024884
0.029210
0.029722
0.026339
0.021571
0.019406
0.023168
0.033609
0.048367
0.063062
0.073432
0.077395
0.075997
0.072838
0.072314
0.077654
0.089675
0.106759
0.125846
0.143844
0.158748
0.169999
0.177983
0.183040
0.184728
0.182000
0.174211
0.162124
0.147967
0.134407
0.123199
0.114436
0.106758
0.098153
0.086860
0.072069
0.054321
0.035475
0.018062
0.004115
-0.005893
-0.013168
-0.019526
-0.025842
-0.031303
-0.034126
-0.033300
-0.030020
-0.027692
-0.030387
-0.040556
-0.057239
-0.075748
-0.089207
-0.091562
-0.080904
-0.061508
-0.043287
-0.038327
-0.055532
-0.095213
-0.145609
-0.182894
-0.175560
-0.093028
0.083192
0.349215
0.673664
1.001260
1.265837
1.409519
1.401302
1.247394
0.988668
0.686207
0.401277
0.178001
0.034870
-0.033599
-0.048227
-0.034715
-0.015482
-0.005444
-0.011214
-0.032415
-0.063977
-0.098727
-0.129771
-0.152246
-0.164177
-0.166458
-0.162096
-0.154994
-0.148605
-0.144996
-0.144697
-0.147294
-0.152208
-0.159010
-0.167094
-0.175144
-0.181083
-0.182845
-0.179598
-0.172596
-0.164884
-0.159855
-0.159426
-0.162990
-0.167834
-0.170777
-0.170002
-0.165997
-0.161155
-0.158354
-0.159330
-0.163701
-0.169181
-0.172878
-0.172897
-0.169217
-0.163340
-0.157147
-0.151882
-0.147879
-0.144987
-0.143114
-0.142425
-0.143126
-0.145184
-0.148277
-0.151947
-0.155703
-0.158914
-0.160633
-0.159674
-0.155066
-0.146701
-0.135705
-0.124258
-0.114867
-0.109366
-0.108095
-0.109632
-0.111354
-0.110647
-0.106154
-0.098335
-0.088941
-0.079776
-0.071546
-0.063570
-0.054452
-0.043187
-0.029938
-0.016012
-0.003096
0.007759
0.016758
0.025244
0.034977
0.047271
0.062388
0.079345
0.096105
0.110157
0.119396
0.123029
0.122135
0.119523
0.118797
0.122879
0.132583
0.145981
0.159038
0.167339
0.168011
0.160787
0.147660
0.131508
0.114696
0.098529
0.083649
0.070764
0.060909
0.054986
0.052980
0.053513
0.054072
0.051771
0.044222
0.030239
0.010264
-0.013528
-0.037564
-0.057772
-0.070933
-0.075972
-0.074565
-0.070611
-0.068674
-0.071973
-0.080895
-0.092858
-0.103685
-0.109735
-0.109545
-0.104137
-0.096118
-0.088356
-0.083062
-0.081450
-0.083732
-0.089240
-0.096740
-0.104983
-0.113179
-0.120931
-0.127575
-0.131568
-0.130741
-0.123653
-0.111208
-0.097182
-0.086848
-0.084248
-0.089816
-0.100012
-0.109314
-0.113240
-0.110451
-0.102815
-0.093859
-0.086872
-0.083686
-0.084338
-0.087324
-0.090184
-0.090335
-0.086043
-0.077229
-0.065695
-0.054558
-0.047079
-0.045393
-0.049708
-0.058303
-0.068305
-0.076904
-0.082437
-0.084886
-0.085581
-0.086353
-0.088542
-0.092362
-0.096884
-0.100653
-0.102503
-0.102060
-0.099578
-0.095343
-0.089287
-0.081321
-0.072244
-0.064368
-0.060985
-0.064627
-0.075196
-0.089396
-0.102098
-0.108877
-0.108124
-0.101504
-0.092763
-0.085846
-0.083411
-0.086220
-0.093269
-0.102333
-0.110673
-0.115790
-0.116087
-0.111258
-0.102312
-0.091279
-0.080696
-0.072957
-0.069554
-0.070399
-0.073619
-0.076187
-0.075381
-0.070416
-0.063230
-0.057748
-0.057838
-0.065060
-0.077486
-0.090268
-0.097690
-0.095693
-0.083691
-0.064836
-0.044594
-0.028328
-0.019005
-0.016041
-0.015668
-0.012544
-0.001909
0.018476
0.047273
0.079809
0.109607
0.130690
0.139717
0.136927
0.125443
0.109443
0.092376
0.076230
0.061968
0.050419
0.042713
0.039800
0.041332
0.044781
0.045698
0.039396
0.023339
-0.001158
-0.029072
-0.053762
-0.069929
-0.075887
-0.073977
-0.069102
-0.066331
-0.068858
-0.077122
-0.089147
-0.101639
-0.111295
-0.115895
-0.114874
-0.109257
-0.101061
-0.092620
-0.086338
-0.085007
-0.092157
-0.111441
-0.144361
-0.186705
-0.225341
-0.237681
-0.195458
-0.072871
0.142913
0.442477
0.790179
1.128586
1.391831
1.524609
1.500126
1.329394
1.057278
0.746655
0.457702
0.231134
0.081291
-0.000391
-0.035446
-0.047348
-0.053546
-0.062387
-0.074565
-0.087121
-0.097482
-0.105563
-0.113402
-0.123245
-0.135677
-0.149018
-0.160208
-0.166477
-0.166746
-0.162071
-0.155117
-0.149130
-0.146896
-0.149888
-0.157743
-0.168247
-0.177985
-0.183566
-0.182887
-0.175779
-0.163767
-0.149217
-0.134518
-0.121704
-0.112452
-0.108071
-0.109196
-0.115309
-0.124481
-0.133714
-0.139934
-0.141226
-0.137697
-0.131519
-0.126119
-0.124867
-0.129733
-0.140320
-0.153609
-0.164715
-0.168670
-0.162667
-0.147647
-0.128161
-0.110375
-0.099293
-0.096806
-0.101506
-0.109951
-0.118306
-0.123411
-0.123054
-0.115886
-0.101570
-0.081285
-0.057978
-0.035571
-0.017211
-0.003844
0.005496
0.011888
0.015020
0.013608
0.007442
-0.000967
-0.006873
-0.005862
0.003331
0.017851
0.032377
0.042406
0.047097
0.049900
0.056549
0.071573
0.095368
0.123606
0.149433
0.167307
0.176277
0.180618
0.187184
0.200914
0.221290
0.242028
0.254300
0.251686
0.234093
0.208529
0.186204
0.177295
0.186036
0.208682
0.235359
0.254544
0.257656
0.241728
0.209619
0.168288
0.125972
0.089146
0.060461
0.038745
0.021197
0.006426
-0.003810
-0.005616
0.003662
0.021946
0.041659
0.052943
0.049201
0.031258
0.007120
-0.012584
-0.020474
-0.016061
-0.005522
0.001622
-0.003134
-0.023745
-0.057899
-0.097384
-0.130368
-0.145145
-0.134468
-0.099013
-0.048146
0.003030
0.039491
0.052101
0.040418
0.011372
-0.024818
-0.058936
-0.085239
-0.101565
-0.107946
-0.105119
-0.093833
-0.074981
-0.050100
-0.021909
0.005360
0.026226
0.035296
0.029529
0.010302
-0.016272
-0.041440
-0.057452
-0.060814
-0.053367
-0.040715
-0.029050
-0.022278
-0.021013
-0.023703
-0.028655
-0.035233
-0.043347
-0.051994
-0.058501
-0.059588
-0.053636
-0.042323
-0.030102
-0.021733
-0.019605
-0.022712
-0.027731
-0.031165
-0.031024
-0.027252
-0.021181
-0.014796
-0.010232
-0.009306
-0.012886
-0.020498
-0.030724
-0.042126
-0.053590
-0.063410
-0.068130
-0.063120
-0.045727
-0.019028
0.007445
0.022020
0.018176
-0.000413
-0.021333
-0.031052
-0.023742
-0.005289
0.010223
0.009302
-0.012411
-0.046884
-0.077376
-0.086953
-0.067387
-0.023887
0.026839
0.064239
0.073273
0.050666
0.005362
-0.046144
-0.086516
-0.103103
-0.090636
-0.051315
0.006637
0.071111
0.128645
0.167401
0.180376
0.168009
0.138812
0.106843
0.086223
0.084939
0.101203
0.124553
0.141145
0.140269
0.118691
0.081137
0.037498
-0.001272
-0.026747
-0.035276
-0.028830
-0.014456
-0.002118
-0.001024
-0.015604
-0.043101
-0.074339
-0.097605
-0.103919
-0.091230
-0.065513
-0.038050
-0.020096
-0.017739
-0.029775
-0.049509
-0.068838
-0.081867
-0.086242
-0.082388
-0.072245
-0.058940
-0.047497
-0.045286
-0.060614
-0.098946
-0.157986
-0.223968
-0.271423
-0.267539
-0.180689
0.008706
0.298051
0.656961
1.029601
1.346412
1.543078
1.580545
1.457905
1.212031
0.903768
0.597072
0.340572
0.158618
0.052747
0.009108
0.006293
0.021027
0.032406
0.025853
-0.003827
-0.052044
-0.107397
-0.156776
-0.190233
-0.203677
-0.198722
-0.180564
-0.155541
-0.129743
-0.108644
-0.096703
-0.096124
-0.105391
-0.119148
-0.130443
-0.134497
-0.131633
-0.127294
-0.128992
-0.142117
-0.167040
-0.198750
-0.228660
-0.247553
-0.248765
-0.230940
-0.199313
-0.164416
-0.138093
-0.128483
-0.136648
-0.156663
-0.178842
-0.194006
-0.196588
-0.185676
-0.164478
-0.139157
-0.117353
-0.106081
-0.109024
-0.124444
-0.145437
-0.163001
-0.170213
-0.164947
-0.149885
-0.130621
-0.113407
-0.103379
-0.103182
-0.112079
-0.126138
-0.139879
-0.148751
-0.151047
-0.148079
-0.142483
-0.135695
-0.126317
-0.110716
-0.085744
-0.051830
-0.014190
0.018856
0.039524
0.044037
0.034249
0.016963
0.001382
-0.004405
0.003329
0.022422
0.046027
0.066172
0.077806
0.081074
0.080641
0.082665
0.091292
0.106583
0.124819
0.140862
0.151289
0.156563
0.160956
0.170088
0.187340
0.211102
0.234509
0.247982
0.243463
0.218498
0.178344
0.134943
0.102615
0.091844
0.103902
0.129360
0.151934
0.156116
0.134624
0.091627
0.040251
-0.003906
-0.029538
-0.033455
-0.020360
0.000205
0.017667
0.023457
0.012919
-0.013738
-0.051414
-0.091220
-0.122782
-0.137321
-0.130653
-0.104963
-0.068484
-0.032948
-0.009721
-0.006154
-0.023488
-0.056900
-0.097408
-0.134810
-0.160652
-0.170379
-0.164124
-0.146046
-0.122512
-0.099734
-0.081700
-0.069248
-0.060668
-0.053455
-0.046097
-0.038883
-0.033481
-0.031852
-0.035218
-0.043472
-0.055045
-0.067266
-0.077225
-0.082901
-0.084017
-0.082012
-0.079020
-0.076438
-0.074068
-0.070583
-0.065042
-0.058307
-0.053054
-0.052159
-0.056591
-0.064386
-0.071564
-0.074438
-0.071837
-0.065828
-0.060514
-0.059716
-0.064944
-0.074732
-0.085455
-0.093019
-0.094575
-0.089512
-0.079385
-0.066933
-0.054824
-0.044878
-0.038036
-0.034702
-0.034924
-0.038248
-0.043642
-0.049778
-0.055496
-0.059981
-0.062543
-0.062439
-0.059222
-0.053527
-0.047550
-0.044536
-0.047373
-0.057092
-0.072153
-0.088841
-0.102455
-0.108831
-0.105760
-0.093952
-0.077116
-0.060896
-0.050811
-0.049911
-0.057185
-0.067671
-0.074571
-0.072626
-0.061005
-0.044002
-0.029028
-0.023026
-0.029138
-0.045122
-0.063982
-0.076484
-0.074652
-0.055017
-0.020293
0.021411
0.059673
0.085778
0.095781
0.091320
0.078108
0.063076
0.051495
0.045193
0.042487
0.039758
0.033886
0.024341
0.013778
0.006651
0.006459
0.013202
0.022761
0.028717
0.025493
0.010885
-0.013287
-0.042330
-0.070614
-0.093362
-0.107878
-0.114059
-0.114004
-0.110723
-0.106540
-0.102213
-0.097367
-0.091874
-0.086986
-0.085244
-0.089133
-0.099361
-0.113978
-0.128979
-0.140101
-0.144763
-0.143002
-0.136987
-0.129701
-0.123896
-0.122053
-0.126964
-0.141613
-0.167206
-0.199573
-0.225902
-0.224419
-0.168583
-0.035266
0.185556
0.483009
0.822694
1.151393
1.409177
1.546010
1.537191
1.391265
1.146604
0.857939
0.578847
0.347609
0.181200
0.077468
0.022054
-0.003930
-0.017760
-0.031209
-0.049044
-0.069988
-0.089655
-0.104058
-0.111965
-0.115046
-0.116202
-0.117516
-0.119341
-0.120898
-0.121587
-0.121799
-0.122720
-0.125483
-0.130442
-0.137036
-0.144167
-0.150714
-0.155804
-0.158763
-0.158893
-0.155429
-0.147896
-0.136875
-0.124742
-0.115679
-0.114419
-0.123954
-0.143331
-0.166985
-0.186418
-0.193709
-0.185166
-0.163240
-0.135717
-0.112601
-0.102105
-0.107380
-0.125186
-0.147045
-0.162629
-0.164182
-0.150010
-0.125235
-0.099384
-0.082170
-0.079688
-0.092569
-0.116346
-0.143296
-0.164898
-0.174234
-0.167929
-0.147170
-0.117351
-0.086186
-0.061006
-0.046544
-0.044202
-0.052627
-0.068673
-0.088074
-0.105998
-0.117985
-0.121241
-0.115581
-0.103234
-0.087509
-0.071233
-0.055950
-0.042185
-0.030172
-0.020313
-0.013020
-0.008166
-0.004613
-0.000269
0.007162
0.019000
0.034662
0.051704
0.067028
0.078635
0.086865
0.094259
0.104054
0.118179
0.135930
0.154102
0.168575
0.176588
0.178540
0.178153
0.180623
0.189696
0.205456
0.224203
0.240381
0.249179
0.248255
0.237976
0.220604
0.199260
0.177099
0.156659
0.139257
0.124621
0.111190
0.097195
0.081911
0.066055
0.050952
0.037180
0.023974
0.009891
-0.005872
-0.022609
-0.038323
-0.050753
-0.058474
-0.061447
-0.060893
-0.058864
-0.057761
-0.059769
-0.066054
-0.076003
-0.087163
-0.096250
-0.100710
-0.099876
-0.095143
-0.089287
-0.085398
-0.085786
-0.091071
-0.099820
-0.109120
-0.115986
-0.118821
-0.117962
-0.115025
-0.111654
-0.108624
-0.105852
-0.103056
-0.100297
-0.097812
-0.095311
-0.091580
-0.085037
-0.075076
-0.063211
-0.053019
-0.048646
-0.052649
-0.064422
-0.080116
-0.094059
-0.100901
-0.097533
-0.084215
-0.064713
-0.045296
-0.032530
-0.030428
-0.038389
-0.051413
-0.062777
-0.067688
-0.065696
-0.060394
-0.056753
-0.057841
-0.063036
-0.068739
-0.070923
-0.067717
-0.060277
-0.051671
-0.044961
-0.042076
-0.044015
-0.051504
-0.064893
-0.082960
-0.101687
-0.114555
-0.115008
-0.099996
-0.072351
-0.040128
-0.012985
0.002314
0.004463
-0.003133
-0.015439
-0.028735
-0.041484
-0.053129
-0.062489
-0.067478
-0.066492
-0.060145
-0.051582
-0.044701
-0.041436
-0.040228
-0.037008
-0.028087
-0.012885
0.005308
0.020807
0.028177
0.024696
0.011864
-0.004458
-0.015576
-0.013072
0.007518
0.044228
0.088860
0.129963
0.157253
0.165444
0.155854
0.135213
0.112391
0.094662
0.085308
0.083562
0.086561
0.091741
0.097948
0.104616
0.110057
0.110633
0.101882
0.081018
0.049139
0.011622
-0.023624
-0.049184
-0.060885
-0.058982
-0.047400
-0.031772
-0.017471
-0.008444
-0.006776
-0.012467
-0.023244
-0.034936
-0.042982
-0.044781
-0.041388
-0.036917
-0.035443
-0.037314
-0.037872
-0.030299
-0.011165
0.015250
0.037396
0.041915
0.020911
-0.022945
-0.075465
-0.113548
-0.109788
-0.038143
0.119376
0.365394
0.681138
1.025010
1.338743
1.561402
1.647442
1.581898
1.385815
1.108859
0.811941
0.547410
0.345234
0.210042
0.128163
0.079155
0.045466
0.016680
-0.011299
-0.039331
-0.067555
-0.096059
-0.124160
-0.149718
-0.169528
-0.180784
-0.182689
-0.177234
-0.168667
-0.161858
-0.160277
-0.164506
-0.172025
-0.178449
-0.179669
-0.173870
-0.162512
-0.149926
-0.141862
-0.143555
-0.157756
-0.183154
-0.213902
-0.240968
-0.255340
-0.251860
-0.231746
-0.202357
-0.174267
-0.157105
-0.156089
-0.170503
-0.194312
-0.218339
-0.233260
-0.232702
-0.215635
-0.187073
-0.156439
-0.133860
-0.125999
-0.133525
-0.151507
-0.172201
-0.188388
-0.195528
-0.192260
-0.179842
-0.161368
-0.141074
-0.123586
-0.112929
-0.111359
-0.118540
-0.131600
-0.146265
-0.158527
-0.165935
-0.167791
-0.164381
-0.156020
-0.142762
-0.124978
-0.104162
-0.083120
-0.065212
-0.053106
-0.047848
-0.048652
-0.053293
-0.058769
-0.062048
-0.060868
-0.054438
-0.043775
-0.031438
-0.020651
-0.013982
-0.011934
-0.012035
-0.009162
0.002547
0.026720
0.062220
0.102657
0.138580
0.161464
0.167559
0.159628
0.145627
0.134976
0.134459
0.145867
0.166294
0.190290
0.212297
0.228231
0.236082
0.235957
0.229838
0.220915
0.212347
0.205870
0.201097
0.196058
0.188589
0.177546
0.163088
0.146054
0.127145
0.106566
0.084318
0.060815
0.037265
0.015488
-0.002746
-0.016454
-0.025794
-0.031851
-0.036035
-0.039451
-0.042623
-0.045692
-0.048954
-0.053282
-0.059971
-0.069960
-0.082916
-0.096866
-0.108721
-0.115477
-0.115517
-0.109460
-0.100147
-0.091641
-0.087559
-0.089524
-0.096592
-0.106028
-0.114885
-0.121300
-0.124674
-0.124810
-0.120942
-0.111646
-0.095912
-0.074679
-0.051628
-0.032446
-0.022793
-0.026025
-0.041705
-0.065396
-0.089759
-0.106818
-0.110885
-0.101050
-0.081834
-0.061211
-0.046763
-0.042068
-0.045421
-0.051538
-0.054944
-0.052919
-0.046520
-0.039543
-0.036308
-0.039344
-0.047842
-0.057584
-0.062680
-0.058577
-0.044767
-0.025391
-0.007124
0.004372
0.007059
0.002660
-0.005294
-0.013725
-0.021041
-0.026681
-0.030061
-0.030026
-0.025328
-0.015743
-0.002958
0.009497
0.017338
0.017144
0.007767
-0.009003
-0.028791
-0.045969
-0.055674
-0.055858
-0.048424
-0.038632
-0.032833
-0.035561
-0.047510
-0.065298
-0.082900
-0.093838
-0.093224
-0.079138
-0.053197
-0.020231
0.012975
0.039660
0.055139
0.058100
0.050595
0.036889
0.021875
0.009829
0.003956
0.006614
0.019578
0.043609
0.077208
0.115466
0.150306
0.172643
0.175680
0.157683
0.122900
0.080245
0.040333
0.011996
-0.000515
0.001323
0.011211
0.020708
0.022716
0.014315
-0.002396
-0.021896
-0.038355
-0.048466
-0.052556
-0.053690
-0.055616
-0.060770
-0.069229
-0.078916
-0.086839
-0.090682
-0.089976
-0.086269
-0.082342
-0.080953
-0.083715
-0.090467
-0.099238
-0.106876
-0.110295
-0.108064
-0.101669
-0.095703
-0.096583
-0.109972
-0.137587
-0.174242
-0.206078
-0.211030
-0.162476
-0.036314
0.179746
0.477546
0.824254
1.165643
1.437659
1.583801
1.572701
1.409026
1.132677
0.805952
0.493698
0.244494
0.079898
-0.005418
-0.034796
-0.037212
-0.036669
-0.046496
-0.068973
-0.098823
-0.128203
-0.150962
-0.164722
-0.170606
-0.171606
-0.170884
-0.170822
-0.172806
-0.177374
-0.184419
-0.193329
-0.203043
-0.212024
-0.218356
-0.220198
-0.216599
-0.208327
-0.198161
-0.190217
-0.188376
-0.194467
-0.207156
-0.222260
-0.234465
-0.239590
-0.236286
-0.226411
-0.214136
-0.204394
-0.201302
-0.206849
-0.220017
-0.236574
-0.249936
-0.253305
-0.242571
-0.218703
-0.188103
-0.160296
-0.143930
-0.143162
-0.156219
-0.176553
-0.195666
-0.206245
-0.204540
-0.191398
-0.171756
-0.152709
-0.140717
-0.138991
-0.146219
-0.157356
-0.166155
-0.168130
-0.162333
-0.151146
-0.138562
-0.128209
-0.122117
-0.120369
-0.121304
-0.121989
-0.119009
-0.109665
-0.093313
-0.072170
-0.050863
-0.034626
-0.026861
-0.027296
-0.031760
-0.033783
-0.027307
-0.009318
0.018814
0.051922
0.083335
0.107789
0.123458
0.132070
0.137243
0.142208
0.148337
0.155168
0.161569
0.167012
0.172038
0.177702
0.184571
0.192159
0.199212
0.204528
0.207550
0.208286
0.206770
0.202650
0.195287
0.184204
0.169436
0.151522
0.131276
0.109632
0.087678
0.066720
0.048194
0.033304
0.022521
0.015190
0.009559
0.003409
-0.004943
-0.015806
-0.027973
-0.039363
-0.048068
-0.053214
-0.055254
-0.055618
-0.055889
-0.056918
-0.058363
-0.058990
-0.057585
-0.053893
-0.048951
-0.044602
-0.042537
-0.043503
-0.047108
-0.052210
-0.057517
-0.062008
-0.065080
-0.066534
-0.066557
-0.065694
-0.064740
-0.064519
-0.065630
-0.068214
-0.071800
-0.075318
-0.077361
-0.076663
-0.072614
-0.065588
-0.056897
-0.048390
-0.041852
-0.038448
-0.038427
-0.041117
-0.045177
-0.049006
-0.051213
-0.051065
-0.048734
-0.045213
-0.041896
-0.039966
-0.039889
-0.041225
-0.042865
-0.043578
-0.042646
-0.040307
-0.037773
-0.036734
-0.038527
-0.043339
-0.049906
-0.055927
-0.059034
-0.057824
-0.052418
-0.044346
-0.035903
-0.029335
-0.026170
-0.026831
-0.030567
-0.035691
-0.040136
-0.042210
-0.041319
-0.038281
-0.034994
-0.033521
-0.035034
-0.039222
-0.044469
-0.048675
-0.050206
-0.048558
-0.044475
-0.039530
-0.035345
-0.032826
-0.031778
-0.031120
-0.029551
-0.026299
-0.021525
-0.016170
-0.011363
-0.007671
-0.004592
-0.000500
0.006853
0.019443
0.038056
0.061767
0.088031
0.113330
0.134139
0.147939
0.153964
0.153369
0.148612
0.142254
0.135787
0.129171
0.121376
0.111574
0.100152
0.088769
0.079361
0.072756
0.067928
0.062454
0.053876
0.041074
0.024839
0.007417
-0.008578
-0.021209
-0.029740
-0.034544
-0.036680
-0.037417
-0.037893
-0.038948
-0.041085
-0.044545
-0.049393
-0.055515
-0.062491
-0.069421
-0.074922
-0.077436
-0.075831
-0.070060
-0.061605
-0.053501
-0.049884
-0.054932
-0.071085
-0.096639
-0.123332
-0.135134
-0.109617
-0.022782
0.143091
0.390530
0.700197
1.029909
1.321630
1.515924
1.569852
1.471683
1.245939
0.945917
0.636338
0.373198
0.188830
0.087318
0.050352
0.049142
0.056394
0.053960
0.034945
0.001642
-0.038425
-0.076510
-0.105755
-0.123030
-0.129335
-0.128768
-0.126473
-0.126433
-0.130116
-0.136515
-0.143350
-0.148604
-0.151531
-0.152714
-0.153357
-0.154400
-0.156050
-0.157920
-0.159511
-0.160593
-0.161245
-0.161704
-0.162242
-0.163156
-0.164723
-0.167019
-0.169679
-0.171860
-0.172559
-0.171173
-0.167923
-0.163849
-0.160330
-0.158436
-0.158500
-0.160096
-0.162320
-0.164157
-0.164789
-0.163795
-0.161251
-0.157703
-0.153985
-0.150930
-0.149072
-0.148472
-0.148737
-0.149220
-0.149319
-0.148706
-0.147394
-0.145612
-0.143568
-0.141271
-0.138513
-0.135033
-0.130740
-0.125866
-0.120948
-0.116643
-0.113413
-0.111238
-0.109520
-0.107302
-0.103689
-0.098245
-0.091112
-0.082824
-0.074032
-0.065296
-0.057029
-0.049450
-0.042478
-0.035643
-0.028167
-0.019321
-0.008877
0.002687
0.014446
0.025623
0.036098
0.046421
0.057327
0.069159
0.081649
0.094181
0.106231
0.117596
0.128298
0.138375
0.147811
0.156616
0.164878
0.172613
0.179501
0.184801
0.187609
0.187342
0.184095
0.178586
0.171690
0.163911
0.155146
0.144899
0.132738
0.118639
0.103028
0.086568
0.069935
0.053740
0.038559
0.024891
0.013024
0.002905
-0.005802
-0.013478
-0.020292
-0.026119
-0.030701
-0.033904
-0.035889
-0.037071
-0.037937
-0.038890
-0.040229
-0.042215
-0.045077
-0.048867
-0.053289
-0.057705
-0.061400
-0.063934
-0.065314
-0.065889
-0.066094
-0.066247
-0.066493
-0.066824
-0.067074
-0.066908
-0.065921
-0.063879
-0.060969
-0.057810
-0.055122
-0.053243
-0.051868
-0.050294
-0.048024
-0.045268
-0.042884
-0.041812
-0.042425
-0.044305
-0.046553
-0.048328
-0.049186
-0.049040
-0.047943
-0.045975
-0.043335
-0.040451
-0.037901
-0.036170
-0.035435
-0.035568
-0.036302
-0.037401
-0.038672
-0.039870
-0.040631
-0.040564
-0.039481
-0.037584
-0.035452
-0.033817
-0.033254
-0.033990
-0.035910
-0.038685
-0.041874
-0.044938
-0.047259
-0.048301
-0.047856
-0.046242
-0.044209
-0.042596
-0.041897
-0.042037
-0.042461
-0.042453
-0.041472
-0.039381
-0.036513
-0.033635
-0.031788
-0.031977
-0.034740
-0.039789
-0.045963
-0.051604
-0.055209
-0.056018
-0.054185
-0.050462
-0.045642
-0.040165
-0.034155
-0.027777
-0.021528
-0.016123
-0.011992
-0.008735
-0.004955
0.001362
0.012121
0.028357
0.049717
0.074317
0.099031
0.120240
0.134913
0.141659
0.141196
0.135858
0.128378
0.120659
0.113268
0.105832
0.097845
0.089235
0.080339
0.071502
0.062735
0.053725
0.044100
0.033676
0.022480
0.010635
-0.001696
-0.014206
-0.026340
-0.037393
-0.046826
-0.054552
-0.060940
-0.066497
-0.071495
-0.075852
-0.079346
-0.081999
-0.084277
-0.086955
-0.090706
-0.095654
-0.101071
-0.105362
-0.106441
-0.102568
-0.093529
-0.081678
-0.072127
-0.071417
-0.084581
-0.111332
-0.142781
-0.160378
-0.138403
-0.050401
0.121473
0.376829
0.690842
1.015077
1.287125
1.447542
1.458812
1.318805
1.062453
0.750231
0.448114
0.207431
0.052442
-0.020782
-0.035957
-0.023917
-0.011295
-0.013956
-0.035777
-0.071452
-0.111255
-0.145781
-0.169249
-0.180678
-0.183071
-0.181382
-0.180268
-0.182478
-0.188318
-0.196137
-0.203439
-0.208075
-0.209092
-0.206979
-0.203303
-0.199934
-0.198242
-0.198637
-0.200616
-0.203206
-0.205490
-0.206928
-0.207363
-0.206840
-0.205427
-0.203203
-0.200367
-0.197330
-0.194640
-0.192780
-0.192005
-0.192370
-0.193877
-0.196519
-0.200106
-0.203987
-0.206971
-0.207639
-0.204974
-0.198977
-0.190865
-0.182684
-0.176552
-0.173900
-0.175067
-0.179286
-0.184937
-0.189934
-0.192231
-0.190448
-0.184478
-0.175687
-0.166433
-0.158963
-0.154284
-0.151727
-0.149506
-0.145873
-0.140036
-0.132289
-0.123468
-0.114338
-0.105364
-0.096827
-0.088871
-0.081272
-0.073187
-0.063316
-0.050634
-0.035214
-0.018488
-0.002641
0.010502
0.020385
0.027907
0.034870
0.043100
0.053711
0.066809
0.081628
0.096933
0.111438
0.124070
0.134036
0.140854
0.144444
0.145268
0.144340
0.142935
0.142043
0.141822
0.141415
0.139302
0.134019
0.124864
0.112215
0.097337
0.081791
0.066808
0.052943
0.040143
0.028080
0.016485
0.005292
-0.005395
-0.015388
-0.024434
-0.032155
-0.038013
-0.041447
-0.042219
-0.040774
-0.038297
-0.036355
-0.036260
-0.038526
-0.042672
-0.047442
-0.051388
-0.053528
-0.053812
-0.053097
-0.052623
-0.053241
-0.054847
-0.056401
-0.056558
-0.054532
-0.050666
-0.046305
-0.043024
-0.041685
-0.041927
-0.042428
-0.041768
-0.039298
-0.035425
-0.031174
-0.027474
-0.024758
-0.023139
-0.022817
-0.024188
-0.027471
-0.032205
-0.037121
-0.040575
-0.041268
-0.038787
-0.033714
-0.027358
-0.021285
-0.016848
-0.014803
-0.015111
-0.016981
-0.019171
-0.020492
-0.020322
-0.018827
-0.016714
-0.014668
-0.012876
-0.011043
-0.008855
-0.006452
-0.004440
-0.003421
-0.003453
-0.003943
-0.004081
-0.003480
-0.002520
-0.002098
-0.002977
-0.005187
-0.007928
-0.010019
-0.010559
-0.009367
-0.006946
-0.004088
-0.001452
0.000602
0.001934
0.002536
0.002561
0.002395
0.002590
0.003627
0.005704
0.008706
0.012341
0.016294
0.020289
0.024116
0.027728
0.031428
0.036001
0.042596
0.052349
0.065972
0.083534
0.104457
0.127598
0.151268
0.173265
0.191107
0.202602
0.206564
0.203256
0.194235
0.181679
0.167673
0.153836
0.141341
0.130995
0.123161
0.117533
0.113036
0.108062
0.100997
0.090815
0.077421
0.061635
0.044881
0.028813
0.015031
0.004890
-0.000766
-0.002013
-0.000210
0.002102
0.001987
-0.002688
-0.012307
-0.025343
-0.039002
-0.050163
-0.056173
-0.055379
-0.047582
-0.034491
-0.019970
-0.009623
-0.009456
-0.023634
-0.051806
-0.086732
-0.113201
-0.109224
-0.050288
0.083403
0.298177
0.579639
0.890587
1.176742
1.380200
1.456781
1.390732
1.200337
0.931577
0.642495
0.385112
0.192111
0.072339
0.014758
-0.002658
-0.003302
-0.004763
-0.015598
-0.035968
-0.060915
-0.084411
-0.102416
-0.114018
-0.120808
-0.125397
-0.130025
-0.135798
-0.142594
-0.149411
-0.154905
-0.157967
-0.158161
-0.155883
-0.152135
-0.148077
-0.144633
-0.142371
-0.141634
-0.142643
-0.145392
-0.149374
-0.153452
-0.156119
-0.156133
-0.153230
-0.148489
-0.144035
-0.142135
-0.144135
-0.149839
-0.157686
-0.165536
-0.171499
-0.174427
-0.174017
-0.170765
-0.165858
-0.160874
-0.157220
-0.155470
-0.155051
-0.154585
-0.152775
-0.149255
-0.144851
-0.141094
-0.139381
-0.140303
-0.143458
-0.147650
-0.151259
-0.152658
-0.150648
-0.144883
-0.136108
-0.125984
-0.116439
-0.108805
-0.103250
-0.098825
-0.094053
-0.087675
-0.079153
-0.068803
-0.057561
-0.046514
-0.036307
-0.026716
-0.016691
-0.004991
0.008935
0.024402
0.039696
0.052930
0.063051
0.070389
0.076480
0.083273
0.092224
0.103748
0.117257
0.131613
0.145619
0.158270
0.168743
0.176347
0.180604
0.181455
0.179359
0.175091
0.169277
0.161961
0.152546
0.140205
0.124542
0.106143
0.086698
0.068539
0.053710
0.042962
0.035247
0.028093
0.018774
0.005682
-0.010822
-0.028548
-0.044479
-0.056128
-0.062571
-0.064705
-0.064665
-0.064693
-0.066038
-0.068434
-0.070468
-0.070590
-0.068142
-0.063769
-0.059100
-0.055994
-0.055805
-0.058926
-0.064684
-0.071583
-0.077831
-0.082003
-0.083542
-0.082851
-0.080966
-0.079038
-0.077929
-0.078062
-0.079485
-0.081987
-0.085163
-0.088433
-0.091069
-0.092296
-0.091504
-0.088539
-0.083918
-0.078801
-0.074655
-0.072744
-0.073688
-0.077238
-0.082318
-0.087299
-0.090460
-0.090584
-0.087443
-0.081945
-0.075789
-0.070789
-0.068173
-0.068200
-0.070204
-0.072967
-0.075206
-0.075993
-0.075030
-0.072737
-0.070100
-0.068227
-0.067732
-0.068270
-0.068586
-0.067160
-0.063138
-0.057024
-0.050677
-0.046563
-0.046641
-0.051477
-0.060061
-0.070352
-0.080179
-0.088002
-0.093203
-0.095930
-0.096732
-0.096223
-0.094889
-0.093053
-0.090944
-0.088800
-0.086908
-0.085537
-0.084735
-0.084164
-0.083134
-0.080922
-0.077212
-0.072384
-0.067416
-0.063431
-0.061158
-0.060636
-0.061274
-0.062083
-0.061831
-0.059055
-0.052116
-0.039535
-0.020596
0.004042
0.032106
0.060043
0.083867
0.100244
0.107424
0.105732
0.097434
0.085980
0.074836
0.066322
0.060938
0.057508
0.054008
0.048587
0.040206
0.028677
0.014344
-0.002185
-0.020028
-0.037884
-0.054111
-0.067178
-0.076297
-0.081770
-0.084774
-0.086753
-0.088850
-0.091709
-0.095604
-0.100633
-0.106725
-0.113538
-0.120385
-0.126313
-0.130227
-0.131012
-0.127753
-0.120281
-0.110091
-0.101108
-0.099439
-0.111354
-0.139510
-0.178581
-0.212383
-0.214751
-0.155429
-0.010309
0.226954
0.536459
0.871233
1.166479
1.357506
1.400591
1.288427
1.053045
0.754381
0.459398
0.220899
0.064470
-0.012735
-0.033364
-0.027006
-0.018895
-0.023660
-0.044592
-0.076824
-0.112048
-0.142776
-0.164889
-0.178119
-0.184836
-0.188050
-0.189750
-0.190342
-0.189238
-0.185976
-0.181024
-0.175774
-0.171876
-0.170465
-0.171771
-0.175206
-0.179689
-0.183985
-0.187003
-0.188093
-0.187291
-0.185298
-0.183083
-0.181258
-0.179654
-0.177457
-0.173903
-0.169036
-0.163970
-0.160365
-0.159435
-0.161133
-0.164081
-0.166285
-0.166179
-0.163341
-0.158566
-0.153390
-0.149389
-0.147538
-0.147855
-0.149419
-0.150794
-0.150662
-0.148378
-0.144207
-0.139125
-0.134304
-0.130534
-0.127949
-0.126173
-0.124730
-0.123351
-0.121958
-0.120439
-0.118486
-0.115689
-0.111821
-0.107033
-0.101775
-0.096466
-0.091179
-0.085588
-0.079208
-0.071689
-0.062917
-0.052860
-0.041425
-0.028553
-0.014523
-0.000154
0.013401
0.025227
0.035207
0.044124
0.053195
0.063346
0.074711
0.086648
0.098163
0.108418
0.117040
0.124205
0.130593
0.137243
0.145223
0.155121
0.166578
0.178221
0.188221
0.195220
0.199065
0.200788
0.201770
0.202638
0.202676
0.200157
0.193306
0.181256
0.164447
0.144413
0.123195
0.102697
0.084203
0.068177
0.054362
0.042080
0.030573
0.019281
0.007998
-0.003099
-0.013495
-0.022406
-0.028873
-0.032020
-0.031588
-0.028551
-0.025320
-0.025131
-0.030694
-0.042790
-0.059576
-0.077030
-0.090325
-0.095572
-0.091261
-0.078957
-0.063014
-0.049273
-0.043008
-0.046729
-0.058820
-0.073903
-0.085088
-0.087200
-0.079273
-0.064928
-0.050422
-0.041476
-0.040628
-0.046415
-0.054564
-0.060303
-0.060444
-0.054411
-0.044112
-0.033045
-0.025009
-0.022660
-0.026313
-0.033575
-0.040221
-0.042108
-0.037229
-0.026757
-0.014409
-0.004378
0.000977
0.002306
0.002555
0.004852
0.010377
0.017653
0.023662
0.025912
0.023963
0.019450
0.014875
0.012212
0.012240
0.014671
0.018603
0.022857
0.026198
0.027677
0.027090
0.025226
0.023555
0.023422
0.025237
0.028222
0.030844
0.031653
0.030048
0.026607
0.022847
0.020479
0.020504
0.022631
0.025410
0.027027
0.026254
0.023000
0.018223
0.013400
0.009967
0.008997
0.011066
0.016158
0.023542
0.031801
0.039187
0.044323
0.046924
0.048029
0.049443
0.052655
0.057999
0.064794
0.072449
0.081668
0.094625
0.113676
0.139408
0.169450
0.199005
0.222734
0.236770
0.239710
0.232408
0.217181
0.197176
0.176129
0.158051
0.146301
0.142154
0.143870
0.147317
0.148059
0.143569
0.134003
0.121185
0.106819
0.091390
0.074326
0.054987
0.033639
0.011948
-0.007057
-0.019550
-0.022082
-0.013182
0.005166
0.027068
0.044030
0.047972
0.034803
0.006722
-0.028144
-0.058767
-0.075469
-0.073478
-0.054394
-0.025432
0.002796
0.019005
0.014135
-0.015445
-0.064696
-0.117838
-0.149181
-0.127961
-0.026722
0.168867
0.451806
0.790221
1.130692
1.409162
1.567712
1.572319
1.424709
1.162563
0.847187
0.543494
0.300523
0.139938
0.055837
0.024133
0.016045
0.009666
-0.004439
-0.024332
-0.042439
-0.052334
-0.053206
-0.050303
-0.051800
-0.064185
-0.088681
-0.120475
-0.150990
-0.171828
-0.178215
-0.170356
-0.152594
-0.131406
-0.113357
-0.103515
-0.104364
-0.115200
-0.132250
-0.149690
-0.161560
-0.164077
-0.157441
-0.146037
-0.136491
-0.134260
-0.140698
-0.152550
-0.164225
-0.171190
-0.172195
-0.169209
-0.165798
-0.165456
-0.170671
-0.182402
-0.199398
-0.217649
-0.231009
-0.233589
-0.223091
-0.202961
-0.181582
-0.168434
-0.169245
-0.182989
-0.202537
-0.218487
-0.223721
-0.216124
-0.198464
-0.176348
-0.155910
-0.142214
-0.138395
-0.145204
-0.160895
-0.181622
-0.202293
-0.217642
-0.223256
-0.216533
-0.197398
-0.168509
-0.134592
-0.100988
-0.071995
-0.049918
-0.035399
-0.028707
-0.030849
-0.043302
-0.066151
-0.095706
-0.123462
-0.137783
-0.128219
-0.090584
-0.030102
0.039343
0.099818
0.135824
0.139781
0.114308
0.070601
0.023888
-0.012038
-0.028978
-0.025736
-0.006597
0.021973
0.054460
0.087677
0.119959
0.149272
0.171942
0.183116
0.178762
0.158028
0.124599
0.086182
0.052105
0.029915
0.022450
0.026846
0.036152
0.042825
0.042255
0.034357
0.022454
0.010365
-0.000410
-0.011739
-0.027685
-0.051817
-0.084450
-0.121220
-0.153909
-0.173405
-0.173648
-0.154694
-0.123263
-0.090277
-0.066422
-0.057801
-0.063708
-0.077466
-0.089775
-0.092912
-0.083873
-0.065218
-0.043495
-0.026153
-0.018441
-0.021671
-0.033483
-0.049762
-0.066987
-0.083714
-0.100474
-0.118432
-0.137829
-0.157201
-0.173730
-0.184419
-0.187411
-0.182864
-0.172983
-0.161195
-0.150790
-0.143619
-0.139512
-0.136703
-0.132955
-0.126664
-0.117418
-0.105984
-0.094028
-0.083694
-0.076946
-0.074770
-0.076649
-0.080756
-0.084807
-0.087088
-0.087056
-0.085272
-0.082837
-0.080720
-0.079400
-0.078910
-0.079121
-0.079985
-0.081611
-0.084268
-0.088379
-0.094384
-0.102338
-0.111313
-0.119038
-0.122251
-0.117898
-0.104712
-0.084339
-0.061232
-0.041155
-0.028881
-0.026253
-0.031662
-0.041198
-0.050719
-0.057547
-0.060949
-0.061549
-0.060486
-0.058984
-0.058303
-0.059548
-0.063052
-0.067697
-0.070902
-0.069651
-0.062117
-0.048882
-0.032876
-0.018047
-0.007520
-0.002290
-0.001059
-0.001159
-0.000032
0.003466
0.008458
0.012390
0.012215
0.005995
-0.005734
-0.019526
-0.029866
-0.031033
-0.019200
0.006046
0.041336
0.080332
0.115502
0.140309
0.151168
0.148437
0.136025
0.119788
0.105389
0.096473
0.093769
0.095302
0.097534
0.096879
0.090990
0.079363
0.063210
0.044845
0.026887
0.011501
-0.000173
-0.008240
-0.013786
-0.018172
-0.022276
-0.026185
-0.029592
-0.032531
-0.035767
-0.040402
-0.046985
-0.054861
-0.062313
-0.067388
-0.068758
-0.066040
-0.059546
-0.049953
-0.038404
-0.027025
-0.019363
-0.020077
-0.033394
-0.060377
-0.095682
-0.125196
-0.126228
-0.071598
0.062308
0.285314
0.584570
0.921356
1.236800
1.466692
1.561236
1.502148
1.309410
1.034155
0.740631
0.485239
0.301329
0.194758
0.149717
0.140130
0.140866
0.134867
0.115109
0.082592
0.042523
0.000727
-0.038440
-0.072463
-0.099951
-0.119855
-0.131376
-0.134591
-0.131131
-0.124130
-0.117282
-0.113537
-0.114261
-0.119194
-0.126955
-0.135663
-0.143418
-0.148736
-0.150981
-0.150631
-0.149088
-0.147969
-0.148236
-0.149714
-0.151324
-0.151822
-0.150542
-0.147732
-0.144429
-0.142027
-0.141764
-0.144278
-0.149307
-0.155602
-0.161132
-0.163709
-0.161976
-0.156381
-0.149473
-0.145052
-0.146386
-0.154430
-0.167096
-0.180062
-0.188654
-0.189797
-0.183111
-0.170853
-0.156954
-0.145583
-0.139695
-0.139985
-0.144692
-0.150451
-0.153844
-0.152874
-0.147619
-0.139790
-0.131625
-0.124786
-0.119848
-0.116439
-0.113769
-0.111150
-0.108281
-0.105199
-0.101946
-0.098121
-0.092610
-0.083814
-0.070445
-0.052534
-0.031962
-0.012014
0.003956
0.014021
0.018514
0.019795
0.021158
0.025450
0.034082
0.046787
0.062121
0.078275
0.093688
0.107253
0.118286
0.126594
0.132675
0.137701
0.143052
0.149584
0.157174
0.164866
0.171458
0.176019
0.178033
0.177229
0.173430
0.166639
0.157289
0.146393
0.135339
0.125348
0.116870
0.109331
0.101405
0.091653
0.079180
0.063995
0.047000
0.029651
0.013431
-0.000680
-0.012544
-0.022793
-0.032318
-0.041531
-0.049876
-0.056027
-0.058815
-0.058324
-0.056362
-0.055773
-0.058906
-0.066146
-0.075504
-0.083556
-0.087176
-0.085091
-0.078459
-0.070268
-0.063955
-0.061920
-0.064608
-0.070502
-0.076961
-0.081472
-0.082754
-0.081223
-0.078648
-0.077195
-0.078310
-0.081993
-0.086834
-0.090799
-0.092317
-0.090989
-0.087536
-0.083142
-0.078769
-0.074905
-0.071751
-0.069469
-0.068177
-0.067760
-0.067779
-0.067654
-0.067001
-0.065844
-0.064564
-0.063665
-0.063547
-0.064359
-0.065903
-0.067577
-0.068466
-0.067708
-0.065003
-0.060922
-0.056733
-0.053762
-0.052704
-0.053334
-0.054804
-0.056256
-0.057257
-0.057761
-0.057738
-0.056903
-0.054847
-0.051481
-0.047416
-0.043934
-0.042525
-0.044278
-0.049481
-0.057548
-0.067168
-0.076547
-0.083739
-0.087133
-0.086010
-0.080909
-0.073505
-0.065978
-0.060200
-0.057202
-0.057119
-0.059458
-0.063377
-0.067782
-0.071401
-0.073066
-0.072271
-0.069639
-0.066834
-0.065745
-0.067366
-0.071095
-0.074950
-0.076598
-0.074579
-0.068967
-0.061204
-0.053294
-0.046931
-0.042941
-0.041171
-0.040671
-0.040021
-0.037774
-0.032981
-0.025661
-0.016908
-0.008364
-0.001198
0.004850
0.011699
0.022123
0.038295
0.060481
0.086544
0.112500
0.133854
0.147160
0.151176
0.147148
0.138135
0.127710
0.118631
0.112041
0.107440
0.103345
0.098223
0.091221
0.082341
0.072056
0.060725
0.048261
0.034289
0.018656
0.001920
-0.014545
-0.028963
-0.039908
-0.046994
-0.051084
-0.053921
-0.057382
-0.062728
-0.070133
-0.078651
-0.086607
-0.092316
-0.094834
-0.094394
-0.092249
-0.089970
-0.088616
-0.088274
-0.088201
-0.087412
-0.085376
-0.082594
-0.080964
-0.083698
-0.094327
-0.114463
-0.140689
-0.161975
-0.159398
-0.109387
0.009646
0.208801
0.480908
0.796522
1.106477
1.352220
1.482072
1.468090
1.316469
1.066291
0.776504
0.506489
0.298333
0.167574
0.104785
0.085341
0.081772
0.073395
0.050632
0.014375
-0.027712
-0.065972
-0.093084
-0.106761
-0.110018
-0.109039
-0.109749
-0.114966
-0.123603
-0.132122
-0.137084
-0.137159
-0.133555
-0.128951
-0.125864
-0.125448
-0.127196
-0.129427
-0.130201
-0.128246
-0.123576
-0.117554
-0.112307
-0.109694
-0.110308
-0.113139
-0.116181
-0.117652
-0.117016
-0.115110
-0.113325
-0.112528
-0.112517
-0.112340
-0.111100
-0.108569
-0.105197
-0.101594
-0.098001
-0.094213
-0.090034
-0.085807
-0.082439
-0.080761
-0.080698
-0.081008
-0.079939
-0.076365
-0.070583
-0.064204
-0.059277
-0.057238
-0.058250
-0.061173
