0.042569
0.043750
0.044758
0.045424
0.045620
0.045325
0.044705
0.044126
0.044051
0.044814
0.046370
0.048219
0.049600
0.049876
0.048835
0.046647
0.043542
0.039523
0.034393
0.028028
0.020590
0.012432
0.003822
-0.005226
-0.014833
-0.024988
-0.035444
-0.045879
-0.056183
-0.066528
-0.077116
-0.087795
-0.097911
-0.106604
-0.113353
-0.118337
-0.122335
-0.126250
-0.130640
-0.135612
-0.141034
-0.146785
-0.152786
-0.158836
-0.164509
-0.169278
-0.172753
-0.174822
-0.175580
-0.175161
-0.173685
-0.171363
-0.168640
-0.166123
-0.164249
-0.162933
-0.161529
-0.159261
-0.155841
-0.151818
-0.148341
-0.146479
-0.146593
-0.148207
-0.150433
-0.152538
-0.154206
-0.155400
-0.156101
-0.156250
-0.155890
-0.155253
-0.154598
-0.153945
-0.153030
-0.151629
-0.149990
-0.148932
-0.149411
-0.151846
-0.155757
-0.160026
-0.163607
-0.166128
-0.167972
-0.169822
-0.172096
-0.174722
-0.177341
-0.179659
-0.181590
-0.183106
-0.184030
-0.184033
-0.182864
-0.180598
-0.177640
-0.174471
-0.171378
-0.168431
-0.165694
-0.163418
-0.162000
-0.161731
-0.162551
-0.164045
-0.165690
-0.167151
-0.168327
-0.169144
-0.169325
-0.168464
-0.166347
-0.163223
-0.159705
-0.156390
-0.153492
-0.150822
-0.148087
-0.145235
-0.142572
-0.140584
-0.139674
-0.140014
-0.141590
-0.144306
-0.148008
-0.152364
-0.156779
-0.160496
-0.162876
-0.163622
-0.162737
-0.160282
-0.156229
-0.150644
-0.144058
-0.137616
-0.132701
-0.130197
-0.129928
-0.130711
-0.131054
-0.130011
-0.127632
-0.124775
-0.122503
-0.121535
-0.122033
-0.123666
-0.125753
-0.127394
-0.127700
-0.126173
-0.123044
-0.119255
-0.115951
-0.113774
-0.112456
-0.111056
-0.108678
-0.105111
-0.100934
-0.097055
-0.094132
-0.092320
-0.091416
-0.091130
-0.091214
-0.091422
-0.091502
-0.091356
-0.091290
-0.092073
-0.094631
-0.099468
-0.106217
-0.113628
-0.119992
-0.123606
-0.122986
-0.116948
-0.104968
-0.088039
-0.069576
-0.055413
-0.051997
-0.062680
-0.083178
-0.098365
-0.082897
-0.007339
0.150755
0.394372
0.699038
1.014961
1.281048
1.446051
1.487042
1.415847
1.270606
1.097861
0.934913
0.800235
0.693945
0.605082
0.520354
0.430191
0.330681
0.222262
0.107099
-0.013145
-0.138277
-0.269193
-0.406663
-0.549981
-0.696200
-0.840367
-0.976737
-1.100391
-1.208431
-1.300171
-1.376293
-1.437607
-1.484188
-1.515312
-1.530002
-1.527541
-1.507534
-1.469567
-1.413060
-1.337762
-1.244866
-1.138063
-1.023747
-0.910020
-0.804781
-0.713582
-0.637994
-0.575055
-0.518177
-0.459401
-0.392351
-0.314721
-0.229214
-0.142494
-0.062629
0.003800
0.053693
0.087801
0.109623
0.123621
0.133688
0.142361
0.150726
0.158690
0.165402
0.169821
0.171418
0.170726
0.169319
0.169105
0.171306
0.175840
0.181541
0.187030
0.191614
0.195575
0.199807
0.205188
0.212219
0.221104
0.231991
0.245041
0.260233
0.277147
0.294998
0.312927
0.330329
0.346907
0.362490
0.376860
0.389832
0.401513
0.412435
0.423337
0.434727
0.446599
0.458563
0.470290
0.481885
0.493855
0.506690
0.520429
0.534583
0.548502
0.561873
0.574956
0.588394
0.602780
0.618324
0.634780
0.651555
0.667795
0.682400
0.694136
0.701948
0.705406
0.704999
0.702039
0.698199
0.694957
0.693238
0.693351
0.695092
0.697825
0.700515
0.701818
0.700397
0.695383
0.686709
0.675043
0.661322
0.646219
0.629915
0.612273
0.593145
0.572481
0.550196
0.526053
0.499808
0.471583
0.442150
0.412816
0.384927
0.359310
0.336042
0.314648
0.294524
0.275217
0.256404
0.237717
0.218712
0.199082
0.178946
0.158925
0.139913
0.122718
0.107788
0.095163
0.084532
0.075294
0.066623
0.057661
0.047850
0.037256
0.026616
0.017004
0.009282
0.003674
-0.000266
-0.003312
-0.006137
-0.009102
-0.012347
-0.015969
-0.020008
-0.024207
-0.027777
-0.029526
-0.028392
-0.024065
-0.017271
-0.009509
-0.002431
0.002696
0.005191
0.004859
0.001861
-0.003296
-0.009756
-0.016469
-0.022533
-0.027487
-0.031349
-0.034395
-0.036927
-0.039238
-0.041746
-0.045020
-0.049554
-0.055405
-0.062023
-0.068487
-0.074034
-0.078469
-0.082171
-0.085708
-0.089420
-0.093290
-0.097131
-0.100850
-0.104527
-0.108290
-0.112175
-0.116153
-0.120321
-0.125023
-0.130738
-0.137765
-0.145956
-0.154678
-0.163017
-0.170044
-0.174968
-0.177154
-0.176193
-0.172142
-0.165778
-0.158561
-0.152152
-0.147707
-0.145457
-0.144843
-0.145073
-0.145625
-0.146361
-0.147301
-0.148375
-0.149412
-0.150311
-0.151163
-0.152157
-0.153360
-0.154579
-0.155466
-0.155812
-0.155781
-0.155895
-0.156743
-0.158617
-0.161355
-0.164466
-0.167438
-0.169981
-0.172094
-0.174005
-0.176092
-0.178802
-0.182445
-0.186879
-0.191289
-0.194376
-0.195007
-0.192980
-0.189354
-0.186063
-0.185000
-0.187136
-0.192152
-0.198716
-0.205156
-0.210109
-0.212894
-0.213534
-0.212562
-0.210754
-0.208828
-0.207150
-0.205573
-0.203545
-0.200486
-0.196153
-0.190663
-0.184074
-0.175896
-0.165114
-0.151036
-0.134659
-0.119579
-0.111397
-0.115091
-0.130873
-0.150132
-0.153719
-0.114688
-0.006361
0.185903
0.453712
0.761500
1.053672
1.272221
1.377630
1.362796
1.252934
1.092238
0.925114
0.781397
0.670971
0.587403
0.516287
0.443440
0.359885
0.263011
0.155018
0.040265
-0.077191
-0.195214
-0.314125
-0.436116
-0.563762
-0.698229
-0.838005
-0.978843
-1.114986
-1.241019
-1.353427
-1.451156
-1.535141
-1.607249
-1.669209
-1.721916
-1.765190
-1.797972
-1.818843
-1.826665
-1.820940
-1.801590
-1.768215
-1.719396
-1.652850
-1.566771
-1.461813
-1.342549
-1.217342
-1.096400
-0.988769
-0.899634
-0.829099
-0.772858
-0.724278
-0.676866
-0.626191
-0.570696
-0.511370
-0.450582
-0.390629
-0.332640
-0.276323
-0.220640
-0.164936
-0.109805
-0.057105
-0.009156
0.032304
0.066715
0.094607
0.117076
0.135311
0.150395
0.163281
0.174737
0.185223
0.194884
0.203734
0.211951
0.220001
0.228421
0.237397
0.246502
0.254885
0.261842
0.267335
0.272056
0.276995
0.282910
0.290123
0.298706
0.308745
0.320390
0.333668
0.348359
0.364080
0.380501
0.397450
0.414787
0.432203
0.449220
0.465503
0.481243
0.497238
0.514484
0.533514
0.554002
0.574930
0.595221
0.614340
0.632491
0.650344
0.668588
0.687647
0.707667
0.728632
0.750433
0.772796
0.795234
0.817133
0.837994
0.857636
0.876236
0.894188
0.911938
0.929846
0.948068
0.966400
0.984147
1.000184
1.013327
1.022915
1.029250
1.033518
1.037111
1.040754
1.043987
1.045334
1.043005
1.035656
1.022852
1.005059
0.983327
0.958892
0.932849
0.905939
0.878426
0.850117
0.820583
0.789505
0.756964
0.723412
0.689306
0.654643
0.618815
0.580974
0.540686
0.498382
0.455231
0.412560
0.371293
0.331810
0.294213
0.258645
0.225331
0.194372
0.165587
0.138630
0.113305
0.089741
0.068223
0.048830
0.031222
0.014788
-0.000992
-0.016273
-0.030876
-0.044522
-0.057027
-0.068283
-0.078105
-0.086213
-0.092488
-0.097338
-0.101808
-0.107189
-0.114298
-0.122895
-0.131711
-0.139095
-0.143834
-0.145623
-0.144992
-0.142914
-0.140418
-0.138339
-0.137108
-0.136562
-0.135893
-0.133954
-0.129907
-0.123864
-0.117059
-0.111342
-0.108273
-0.108404
-0.111194
-0.115536
-0.120438
-0.125384
-0.130230
-0.134871
-0.139063
-0.142557
-0.145399
-0.148082
-0.151348
-0.155778
-0.161488
-0.168123
-0.175079
-0.181716
-0.187488
-0.192036
-0.195306
-0.197624
-0.199591
-0.201784
-0.204469
-0.207542
-0.210779
-0.214197
-0.218232
-0.223583
-0.230803
-0.239919
-0.250313
-0.260858
-0.270180
-0.276881
-0.279749
-0.278034
-0.271798
-0.262126
-0.250943
-0.240382
-0.232018
-0.226410
-0.223194
-0.221546
-0.220617
-0.219683
-0.218106
-0.215371
-0.211309
-0.206329
-0.201324
-0.197214
-0.194404
-0.192631
-0.191342
-0.190303
-0.189895
-0.190824
-0.193451
-0.197309
-0.201222
-0.203992
-0.205166
-0.205301
-0.205583
-0.207099
-0.210313
-0.214991
-0.220458
-0.225882
-0.230422
-0.233336
-0.234161
-0.232961
-0.230423
-0.227654
-0.225738
-0.225337
-0.226611
-0.229463
-0.233839
-0.239783
-0.247200
-0.255533
-0.263636
-0.269945
-0.272844
-0.271048
-0.263954
-0.251914
-0.236361
-0.219566
-0.203905
-0.190843
-0.180177
-0.170126
-0.158460
-0.144253
-0.129296
-0.118096
-0.115830
-0.124583
-0.139208
-0.144843
-0.118201
-0.033766
0.125972
0.359788
0.641855
0.925414
1.156575
1.293132
1.319446
1.249972
1.120196
0.970613
0.832143
0.718982
0.629806
0.554196
0.479931
0.398071
0.304836
0.200866
0.089146
-0.027218
-0.146563
-0.269162
-0.396651
-0.530727
-0.671722
-0.817713
-0.964603
-1.107135
-1.240326
-1.360652
-1.466508
-1.557941
-1.635982
-1.701919
-1.756682
-1.800411
-1.832326
-1.851094
-1.855617
-1.845791
-1.822605
-1.787341
-1.740371
-1.680540
-1.605817
-1.515021
-1.409620
-1.294545
-1.177486
-1.066950
-0.969848
-0.889522
-0.824938
-0.771301
-0.721851
-0.670137
-0.611968
-0.546389
-0.475379
-0.402533
-0.331383
-0.264219
-0.201881
-0.144404
-0.091874
-0.044862
-0.004235
0.029402
0.056145
0.076882
0.093052
0.106296
0.118135
0.129682
0.141380
0.152874
0.163160
0.171108
0.176132
0.178634
0.179948
0.181820
0.185773
0.192708
0.202882
0.216072
0.231717
0.249006
0.267013
0.284986
0.302630
0.320131
0.337804
0.355595
0.372859
0.388627
0.402242
0.413847
0.424379
0.435030
0.446628
0.459383
0.473108
0.487592
0.502700
0.518189
0.533563
0.548286
0.562269
0.576188
0.591282
0.608670
0.628663
0.650547
0.672936
0.694408
0.713973
0.731200
0.746122
0.759179
0.771280
0.783774
0.798143
0.815438
0.835785
0.858313
0.881513
0.903780
0.923812
0.940771
0.954291
0.964505
0.972007
0.977608
0.981838
0.984484
0.984566
0.980865
0.972705
0.960452
0.945409
0.929244
0.913353
0.898504
0.884800
0.871738
0.858226
0.842629
0.823098
0.798222
0.767715
0.732650
0.694967
0.656490
0.618103
0.579587
0.540151
0.499195
0.456807
0.413808
0.371492
0.331288
0.294433
0.261677
0.233056
0.207873
0.184983
0.163321
0.142364
0.122212
0.103207
0.085427
0.068470
0.051746
0.035014
0.018702
0.003702
-0.009204
-0.019817
-0.028525
-0.035890
-0.042198
-0.047354
-0.051166
-0.053722
-0.055510
-0.057207
-0.059353
-0.062203
-0.065833
-0.070276
-0.075465
-0.081043
-0.086343
-0.090726
-0.094055
-0.096875
-0.100063
-0.104152
-0.108879
-0.113271
-0.116159
-0.116698
-0.114606
-0.110146
-0.104062
-0.097522
-0.091969
-0.088768
-0.088693
-0.091534
-0.096094
-0.100676
-0.103811
-0.104822
-0.103964
-0.102161
-0.100596
-0.100324
-0.101977
-0.105552
-0.110378
-0.115364
-0.119496
-0.122334
-0.124189
-0.125815
-0.127861
-0.130492
-0.133457
-0.136438
-0.139336
-0.142268
-0.145351
-0.148541
-0.151658
-0.154555
-0.157221
-0.159725
-0.162056
-0.164056
-0.165542
-0.166498
-0.167124
-0.167690
-0.168360
-0.169219
-0.170541
-0.173019
-0.177667
-0.185314
-0.195989
-0.208603
-0.221175
-0.231483
-0.237777
-0.239191
-0.235758
-0.228244
-0.218017
-0.206904
-0.196842
-0.189291
-0.184701
-0.182458
-0.181423
-0.180675
-0.179928
-0.179340
-0.178964
-0.178404
-0.176994
-0.174314
-0.170595
-0.166666
-0.163513
-0.161810
-0.161716
-0.162983
-0.165165
-0.167730
-0.170083
-0.171646
-0.172086
-0.171568
-0.170782
-0.170624
-0.171710
-0.174060
-0.177184
-0.180457
-0.183457
-0.186000
-0.187983
-0.189272
-0.189821
-0.189867
-0.189911
-0.190371
-0.191130
-0.191437
-0.190387
-0.187718
-0.184281
-0.181736
-0.181523
-0.183731
-0.186614
-0.187150
-0.182456
-0.171474
-0.156110
-0.141149
-0.132434
-0.133293
-0.140104
-0.139054
-0.106766
-0.016648
0.149847
0.391275
0.679969
0.966651
1.195889
1.326068
1.344107
1.267681
1.134735
0.986791
0.854567
0.751357
0.674590
0.612379
0.550982
0.480256
0.395917
0.298861
0.192735
0.081209
-0.033845
-0.152770
-0.277367
-0.409580
-0.550227
-0.698175
-0.850117
-1.001043
-1.145291
-1.277908
-1.395767
-1.497917
-1.584996
-1.658069
-1.717660
-1.763568
-1.795493
-1.813874
-1.820200
-1.816442
-1.803833
-1.781672
-1.746940
-1.695146
-1.622267
-1.527042
-1.412664
-1.287112
-1.161834
-1.048961
-0.957736
-0.891367
-0.845777
-0.811133
-0.775769
-0.730683
-0.672457
-0.603360
-0.529013
-0.455234
-0.385762
-0.321683
-0.262229
-0.206055
-0.152222
-0.100653
-0.052160
-0.008190
0.029686
0.060451
0.084232
0.102427
0.117193
0.130546
0.143616
0.156489
0.168631
0.179480
0.188803
0.196723
0.203552
0.209693
0.215616
0.221806
0.228566
0.235790
0.242949
0.249415
0.254951
0.259983
0.265423
0.272160
0.280601
0.290585
0.301676
0.313510
0.325951
0.339009
0.352671
0.366865
0.381559
0.396882
0.413081
0.430353
0.448725
0.468080
0.488272
0.509138
0.530351
0.551323
0.571370
0.590138
0.607946
0.625695
0.644305
0.664091
0.684537
0.704683
0.723815
0.741919
0.759552
0.777260
0.795062
0.812433
0.828802
0.844088
0.858792
0.873558
0.888583
0.903374
0.916993
0.928545
0.937508
0.943722
0.947191
0.947941
0.946053
0.941751
0.935397
0.927352
0.917830
0.906869
0.894372
0.880119
0.863685
0.844406
0.821570
0.794814
0.764454
0.731442
0.696914
0.661630
0.625746
0.589054
0.551449
0.513217
0.474946
0.437227
0.400450
0.364845
0.330630
0.298015
0.266977
0.237025
0.207253
0.176848
0.145789
0.115222
0.087120
0.063367
0.044843
0.031069
0.020538
0.011387
0.001983
-0.008731
-0.021094
-0.034711
-0.048618
-0.061661
-0.073009
-0.082468
-0.090336
-0.096868
-0.101786
-0.104334
-0.103927
-0.100930
-0.096929
-0.094182
-0.094546
-0.098552
-0.105172
-0.112374
-0.118043
-0.120767
-0.120135
-0.116620
-0.111292
-0.105527
-0.100697
-0.097762
-0.096895
-0.097403
-0.098138
-0.098203
-0.097481
-0.096589
-0.096354
-0.097258
-0.099293
-0.102227
-0.105927
-0.110375
-0.115409
-0.120494
-0.124837
-0.127777
-0.129150
-0.129351
-0.129067
-0.128948
-0.129427
-0.130720
-0.132842
-0.135547
-0.138268
-0.140258
-0.140975
-0.140490
-0.139630
-0.139697
-0.141885
-0.146781
-0.154228
-0.163549
-0.173848
-0.184140
-0.193315
-0.200196
-0.203849
-0.203984
-0.201070
-0.195997
-0.189517
-0.181977
-0.173595
-0.165045
-0.157735
-0.153405
-0.153233
-0.157092
-0.163504
-0.170286
-0.175457
-0.177836
-0.177132
-0.173683
-0.168172
-0.161514
-0.154829
-0.149305
-0.145900
-0.145081
-0.146757
-0.150440
-0.155420
-0.160809
-0.165532
-0.168511
-0.169112
-0.167606
-0.165221
-0.163580
-0.163841
-0.166108
-0.169505
-0.172839
-0.175334
-0.176966
-0.178293
-0.180040
-0.182757
-0.186653
-0.191535
-0.196761
-0.201264
-0.203772
-0.203276
-0.199543
-0.193364
-0.186301
-0.180022
-0.175547
-0.172800
-0.170597
-0.167011
-0.160009
-0.148348
-0.132618
-0.115980
-0.103805
-0.101546
-0.110891
-0.125531
-0.128888
-0.096225
-0.002109
0.168458
0.409667
0.690888
0.962833
1.173020
1.284234
1.287225
1.201550
1.064857
0.916811
0.785529
0.681650
0.600470
0.528994
0.453645
0.365388
0.261140
0.142264
0.011991
-0.126602
-0.271352
-0.420729
-0.573142
-0.726331
-0.877123
-1.021663
-1.156106
-1.277516
-1.384511
-1.477217
-1.556382
-1.622049
-1.672588
-1.704812
-1.715291
-1.702203
-1.666657
-1.612768
-1.546486
-1.473846
-1.399407
-1.325374
-1.251510
-1.175732
-1.095188
-1.007503
-0.911781
-0.808969
-0.701459
-0.592211
-0.483974
-0.379126
-0.280129
-0.190058
-0.112451
-0.050297
-0.004726
0.025660
0.044317
0.055425
0.062515
0.067767
0.072117
0.075811
0.078902
0.081451
0.083521
0.085178
0.086552
0.087894
0.089505
0.091601
0.094233
0.097397
0.101246
0.106149
0.112460
0.120163
0.128734
0.137413
0.145692
0.153593
0.161505
0.169716
0.178056
0.185956
0.192887
0.198807
0.204284
0.210186
0.217204
0.225534
0.234882
0.244665
0.254212
0.262908
0.270355
0.276605
0.282319
0.288644
0.296737
0.307224
0.319984
0.334396
0.349814
0.365822
0.382138
0.398354
0.413910
0.428433
0.442212
0.456312
0.472088
0.490326
0.510618
0.531422
0.550769
0.567168
0.580152
0.590263
0.598636
0.606528
0.614994
0.624652
0.635480
0.646699
0.656954
0.664832
0.669439
0.670642
0.668804
0.664258
0.656957
0.646566
0.632877
0.616160
0.597104
0.576453
0.554645
0.531763
0.507762
0.482697
0.456718
0.429866
0.401942
0.372670
0.342071
0.310709
0.279539
0.249482
0.221058
0.194396
0.169580
0.146969
0.127148
0.110495
0.096707
0.084686
0.072914
0.060015
0.045198
0.028399
0.010257
-0.007970
-0.024568
-0.037767
-0.046348
-0.050218
-0.050552
-0.049348
-0.048589
-0.049516
-0.052377
-0.056649
-0.061450
-0.065817
-0.068863
-0.069992
-0.069256
-0.067594
-0.066613
-0.067818
-0.071723
-0.077429
-0.083025
-0.086568
-0.087041
-0.084742
-0.080988
-0.077415
-0.075319
-0.075281
-0.077105
-0.079955
-0.082593
-0.083719
-0.082385
-0.078369
-0.072327
-0.065596
-0.059721
-0.055935
-0.054889
-0.056662
-0.060938
-0.067135
-0.074454
-0.081942
-0.088638
-0.093813
-0.097157
-0.098768
-0.098943
-0.097937
-0.095927
-0.093185
-0.090244
-0.087822
-0.086519
-0.086524
-0.087588
-0.089262
-0.091215
-0.093352
-0.095680
-0.098082
-0.100218
-0.101637
-0.101944
-0.100869
-0.098284
-0.094328
-0.089657
-0.085592
-0.083811
-0.085597
-0.091037
-0.098728
-0.106261
-0.111220
-0.112099
-0.108701
-0.101973
-0.093547
-0.085273
-0.078854
-0.075511
-0.075668
-0.078772
-0.083481
-0.088262
-0.092110
-0.094892
-0.097108
-0.099274
-0.101467
-0.103336
-0.104518
-0.105024
-0.105290
-0.105896
-0.107229
-0.109335
-0.112010
-0.114966
-0.117888
-0.120380
-0.121919
-0.121942
-0.120088
-0.116381
-0.111219
-0.105167
-0.098733
-0.092324
-0.086363
-0.081408
-0.078145
-0.077226
-0.079059
-0.083646
-0.090484
-0.098488
-0.106009
-0.111091
-0.112062
-0.108308
-0.100765
-0.091687
-0.083589
-0.077863
-0.073888
-0.069321
-0.061604
-0.049999
-0.036978
-0.027854
-0.028163
-0.039310
-0.054145
-0.054862
-0.015515
0.089986
0.276132
0.535001
0.832462
1.115515
1.329511
1.437873
1.434553
1.343111
1.203904
1.056980
0.929161
0.829741
0.753943
0.690113
0.626537
0.555538
0.474457
0.384379
0.287849
0.186781
0.081436
-0.029076
-0.144968
-0.263556
-0.378037
-0.478354
-0.554199
-0.598910
-0.612325
-0.601092
-0.576140
-0.548553
-0.525838
-0.510296
-0.500037
-0.491801
-0.483816
-0.476997
-0.473735
-0.475004
-0.477696
-0.474161
-0.454779
-0.412457
-0.346599
-0.264214
-0.177468
-0.099064
-0.037886
0.003086
0.026102
0.036260
0.038971
0.038399
0.037040
0.036007
0.035523
0.035372
0.035322
0.035439
0.036149
0.037940
0.040837
0.044092
0.046377
0.046433
0.043732
0.038711
0.032512
0.026489
0.021818
0.019302
0.019278
0.021510
0.025155
0.028935
0.031568
0.032223
0.030727
0.027359
0.022452
0.016199
0.008862
0.001230
-0.005174
-0.008484
-0.007337
-0.001609
0.007462
0.017814
0.027381
0.034737
0.039375
0.041657
0.042571
0.043415
0.045404
0.049245
0.054835
0.061312
0.067517
0.072621
0.076501
0.079655
0.082809
0.086578
0.091364
0.097408
0.104733
0.112929
0.120972
0.127416
0.131011
0.131382
0.129242
0.125921
0.122496
0.119134
0.115080
0.109220
0.100788
0.089761
0.076801
0.062925
0.049149
0.036243
0.024552
0.013858
0.003354
-0.008134
-0.021672
-0.037694
-0.055725
-0.074537
-0.092614
-0.108619
-0.121585
-0.130866
-0.136075
-0.137136
-0.134406
-0.128632
-0.120707
-0.111384
-0.101180
-0.090561
-0.080189
-0.070917
-0.063388
-0.057499
-0.052237
-0.046161
-0.038309
-0.028910
-0.019389
-0.011666
-0.007233
-0.006568
-0.009126
-0.013730
-0.019065
-0.024054
-0.028104
-0.031246
-0.034111
-0.037649
-0.042611
-0.049042
-0.056126
-0.062527
-0.067036
-0.069095
-0.068933
-0.067326
-0.065250
-0.063695
-0.063604
-0.065759
-0.070485
-0.077349
-0.085184
-0.092504
-0.098071
-0.101198
-0.101661
-0.099383
-0.094253
-0.086241
-0.075703
-0.063541
-0.051027
-0.039345
-0.029193
-0.020713
-0.013768
-0.008284
-0.004362
-0.002102
-0.001346
-0.001603
-0.002201
-0.002543
-0.002312
-0.001590
-0.000921
-0.001256
-0.003646
-0.008652
-0.015737
-0.023075
-0.028127
-0.028800
-0.024552
-0.016763
-0.008151
-0.001584
0.000998
-0.000952
-0.006809
-0.015314
-0.025066
-0.034809
-0.043626
-0.051140
-0.057601
-0.063674
-0.069899
-0.076169
-0.081608
-0.085030
-0.085662
-0.083598
-0.079596
-0.074409
-0.068212
-0.060626
-0.051340
-0.040800
-0.030436
-0.022226
-0.017913
-0.018338
-0.023147
-0.030880
-0.039306
-0.045952
-0.048803
-0.047024
-0.041371
-0.033975
-0.027502
-0.024113
-0.024803
-0.029375
-0.036839
-0.045806
-0.054645
-0.061558
-0.064882
-0.063684
-0.058296
-0.050356
-0.042231
-0.036142
-0.033507
-0.034796
-0.039790
-0.047883
-0.058150
-0.069256
-0.079473
-0.087040
-0.090765
-0.090490
-0.087134
-0.082294
-0.077693
-0.074734
-0.074163
-0.075753
-0.078067
-0.078615
-0.074771
-0.065369
-0.052261
-0.040587
-0.036748
-0.044133
-0.058113
-0.062926
-0.033086
0.059377
0.233130
0.485515
0.786445
1.083291
1.316984
1.443095
1.447714
1.350147
1.191783
1.017895
0.861717
0.737046
0.640077
0.556967
0.472411
0.375682
0.262819
0.135475
-0.001961
-0.145275
-0.292122
-0.442055
-0.595197
-0.750472
-0.904503
-1.051899
-1.186831
-1.304982
-1.404736
-1.486959
-1.553719
-1.606929
-1.647771
-1.676985
-1.695381
-1.703827
-1.702481
-1.689763
-1.661997
-1.614383
-1.543234
-1.448518
-1.335382
-1.213727
-1.095845
-0.993019
-0.912358
-0.854983
-0.816120
-0.787023
-0.757974
-0.721248
-0.672934
-0.613082
-0.544423
-0.470566
-0.394673
-0.319138
-0.246047
-0.177703
-0.116595
-0.064747
-0.022949
0.009522
0.034487
0.054076
0.070036
0.083451
0.094819
0.104335
0.112204
0.118912
0.125372
0.132879
0.142810
0.156173
0.173204
0.193241
0.214954
0.236797
0.257455
0.276080
0.292260
0.305882
0.317080
0.326327
0.334510
0.342785
0.352185
0.363173
0.375422
0.387942
0.399462
0.408902
0.415762
0.420372
0.423947
0.428426
0.436058
0.448760
0.467446
0.491647
0.519651
0.549114
0.577800
0.604097
0.627153
0.646790
0.663381
0.677757
0.691034
0.704345
0.718589
0.734346
0.751956
0.771625
0.793434
0.817253
0.842673
0.869076
0.895815
0.922322
0.947997
0.971919
0.992676
1.008641
1.018653
1.022699
1.022082
1.018850
1.014803
1.010659
1.005815
0.998723
0.987523
0.970586
0.946902
0.916371
0.880030
0.839993
0.798885
0.758831
0.720517
0.682940
0.644114
0.602368
0.557418
0.510554
0.463906
0.419306
0.377468
0.337885
0.299323
0.260542
0.220885
0.180574
0.140681
0.102780
0.068419
0.038590
0.013468
-0.007414
-0.024694
-0.038699
-0.049291
-0.056152
-0.059318
-0.059569
-0.058380
-0.057400
-0.057815
-0.059998
-0.063609
-0.067988
-0.072492
-0.076603
-0.079851
-0.081789
-0.082131
-0.080980
-0.078895
-0.076652
-0.074860
-0.073742
-0.073223
-0.073192
-0.073654
-0.074655
-0.076135
-0.077919
-0.079895
-0.082162
-0.084949
-0.088314
-0.091929
-0.095178
-0.097562
-0.099102
-0.100403
-0.102313
-0.105454
-0.109966
-0.115617
-0.122104
-0.129268
-0.137118
-0.145716
-0.155068
-0.165004
-0.174991
-0.183883
-0.189862
-0.190850
-0.185441
-0.173936
-0.158814
-0.144192
-0.134383
-0.132245
-0.138120
-0.149804
-0.163422
-0.174734
-0.180408
-0.178979
-0.171320
-0.160412
-0.150375
-0.144986
-0.146281
-0.153879
-0.165359
-0.177459
-0.187413
-0.193757
-0.196369
-0.196002
-0.193777
-0.190827
-0.188077
-0.186039
-0.184720
-0.183762
-0.182829
-0.182033
-0.182090
-0.184042
-0.188658
-0.195905
-0.204837
-0.213968
-0.221871
-0.227627
-0.230912
-0.231824
-0.230674
-0.227922
-0.224161
-0.219976
-0.215679
-0.211141
-0.205985
-0.200071
-0.193908
-0.188637
-0.185520
-0.185271
-0.187641
-0.191473
-0.195158
-0.197193
-0.196638
-0.193376
-0.188188
-0.182618
-0.178565
-0.177630
-0.180428
-0.186149
-0.192599
-0.196755
-0.195724
-0.187974
-0.174579
-0.159935
-0.151073
-0.154900
-0.173529
-0.199300
-0.212227
-0.182728
-0.080728
0.110952
0.384347
0.702087
1.005534
1.233817
1.345624
1.333088
1.221018
1.052986
0.872606
0.709290
0.573483
0.460523
0.358762
0.257126
0.149206
0.033380
-0.089508
-0.218707
-0.354650
-0.498230
-0.649140
-0.804637
-0.959681
-1.108389
-1.245908
-1.369604
-1.479018
-1.574859
-1.657841
-1.728033
-1.784905
-1.827772
-1.856242
-1.870425
-1.870804
-1.857747
-1.830807
-1.788229
-1.727269
-1.645637
-1.543620
-1.425749
-1.300825
-1.179931
-1.073171
-0.986619
-0.920810
-0.871275
-0.830614
-0.790993
-0.746121
-0.692316
-0.628734
-0.556997
-0.480429
-0.403082
-0.328816
-0.260637
-0.200374
-0.148624
-0.104875
-0.067810
-0.035798
-0.007481
0.017796
0.040029
0.059122
0.075593
0.090860
0.106791
0.124779
0.144981
0.166250
0.186796
0.205106
0.220532
0.233257
0.243837
0.252778
0.260485
0.267489
0.274606
0.282766
0.292566
0.303906
0.315971
0.327601
0.337796
0.346096
0.352734
0.358604
0.365128
0.373942
0.386362
0.402739
0.422098
0.442422
0.461596
0.478505
0.493610
0.508592
0.525309
0.544765
0.566701
0.589933
0.613022
0.634846
0.654876
0.673233
0.690659
0.708381
0.727772
0.749844
0.774779
0.801801
0.829490
0.856344
0.881254
0.903695
0.923644
0.941423
0.957585
0.972800
0.987607
1.002065
1.015538
1.026868
1.034905
1.039015
1.039182
1.035645
1.028442
1.017284
1.001871
0.982336
0.959388
0.933993
0.906863
0.878168
0.847649
0.814941
0.779739
0.741723
0.700455
0.655569
0.607236
0.556550
0.505389
0.455718
0.408740
0.364488
0.322170
0.281006
0.240956
0.202845
0.167829
0.136619
0.108941
0.083559
0.058767
0.033119
0.006056
-0.021790
-0.048682
-0.072294
-0.090503
-0.102248
-0.108051
-0.109920
-0.110562
-0.112294
-0.116211
-0.122014
-0.128499
-0.134325
-0.138632
-0.141280
-0.142718
-0.143624
-0.144499
-0.145356
-0.145655
-0.144555
-0.141423
-0.136373
-0.130492
-0.125532
-0.123148
-0.124081
-0.127795
-0.132793
-0.137371
-0.140309
-0.141113
-0.139851
-0.136911
-0.132923
-0.128779
-0.125537
-0.124084
-0.124761
-0.127264
-0.130921
-0.135126
-0.139565
-0.144083
-0.148423
-0.152173
-0.155014
-0.157006
-0.158579
-0.160174
-0.161856
-0.163262
-0.163976
-0.164027
-0.164083
-0.165162
-0.168074
-0.173000
-0.179447
-0.186469
-0.192906
-0.197554
-0.199372
-0.197852
-0.193403
-0.187471
-0.182154
-0.179341
-0.179833
-0.182992
-0.187191
-0.190756
-0.192727
-0.193005
-0.191946
-0.189888
-0.187002
-0.183491
-0.179837
-0.176809
-0.175202
-0.175503
-0.177725
-0.181435
-0.185868
-0.190047
-0.192949
-0.193802
-0.192417
-0.189346
-0.185681
-0.182563
-0.180673
-0.180052
-0.180346
-0.181257
-0.182844
-0.185409
-0.189115
-0.193660
-0.198291
-0.202135
-0.204541
-0.205203
-0.204074
-0.201265
-0.197073
-0.192055
-0.186978
-0.182578
-0.179273
-0.177010
-0.175382
-0.173911
-0.172257
-0.170228
-0.167635
-0.164225
-0.159806
-0.154477
-0.148747
-0.143406
-0.139223
-0.136662
-0.135770
-0.136168
-0.136998
-0.136796
-0.133569
-0.125441
-0.111900
-0.095141
-0.080509
-0.075123
-0.084450
-0.107622
-0.133355
-0.138900
-0.094087
0.029076
0.243577
0.536498
0.866352
1.172545
1.394949
1.495277
1.469773
1.347056
1.173230
0.992810
0.834687
0.707807
0.605461
0.513689
0.419118
0.313572
0.195033
0.066018
-0.069090
-0.206457
-0.344103
-0.481837
-0.620124
-0.758603
-0.895167
-1.026175
-1.147725
-1.257211
-1.354175
-1.439944
-1.516359
-1.584498
-1.644173
-1.694310
-1.733708
-1.761602
-1.777778
-1.782399
-1.775700
-1.757575
-1.727028
-1.681739
-1.618345
-1.533855
-1.427926
-1.304880
-1.174101
-1.048120
-0.938913
-0.853990
-0.794078
-0.753388
-0.722161
-0.690181
-0.649793
-0.597452
-0.533651
-0.461650
-0.385717
-0.309577
-0.235583
-0.164808
-0.097829
-0.035637
0.020029
0.067217
0.104842
0.133562
0.155762
0.174601
0.192706
0.211313
0.230216
0.248333
0.264396
0.277426
0.286989
0.293314
0.297337
0.300557
0.304701
0.311292
0.321327
0.335152
0.352460
0.372303
0.393124
0.412966
0.429994
0.443217
0.453009
0.461012
0.469330
0.479466
0.491676
0.505150
0.518804
0.532078
0.545215
0.558980
0.574174
0.591334
0.610696
0.632214
0.655493
0.679683
0.703608
0.726229
0.747230
0.767313
0.787954
0.810732
0.836663
0.865839
0.897479
0.930208
0.962433
0.992704
1.020055
1.044257
1.065824
1.085668
1.104513
1.122373
1.138444
1.151507
1.160602
1.165522
1.166853
1.165567
1.162490
1.157995
1.152007
1.144175
1.133933
1.120463
1.102704
1.079584
1.050366
1.014883
0.973524
0.927086
0.876679
0.823753
0.770062
0.717384
0.667014
0.619312
0.573683
0.529038
0.484502
0.439932
0.395988
0.353835
0.314699
0.279528
0.248799
0.222477
0.200086
0.180853
0.163919
0.148567
0.134385
0.121263
0.109224
0.098258
0.088309
0.079435
0.071944
0.066291
0.062760
0.061164
0.060841
0.060978
0.060989
0.060672
0.060048
0.059067
0.057473
0.054921
0.051196
0.046284
0.040266
0.033213
0.025260
0.016855
0.008916
0.002697
-0.000700
-0.000860
0.001734
0.005960
0.010617
0.014853
0.018250
0.020636
0.021945
0.022249
0.021873
0.021378
0.021324
0.021982
0.023219
0.024619
0.025703
0.026022
0.025099
0.022376
0.017368
0.010033
0.001084
-0.008040
-0.015684
-0.020674
-0.022783
-0.022660
-0.021370
-0.019901
-0.018930
-0.018840
-0.019786
-0.021669
-0.024072
-0.026389
-0.028191
-0.029586
-0.031222
-0.033837
-0.037707
-0.042418
-0.047140
-0.051178
-0.054345
-0.056923
-0.059313
-0.061734
-0.064211
-0.066814
-0.069820
-0.073588
-0.078262
-0.083587
-0.089030
-0.094041
-0.098172
-0.100933
-0.101599
-0.099299
-0.093474
-0.084428
-0.073531
-0.062848
-0.054383
-0.049399
-0.048170
-0.050160
-0.054366
-0.059581
-0.064560
-0.068210
-0.069848
-0.069382
-0.067254
-0.064108
-0.060441
-0.056476
-0.052352
-0.048417
-0.045355
-0.043992
-0.044911
-0.048118
-0.052997
-0.058548
-0.063694
-0.067529
-0.069456
-0.069342
-0.067639
-0.065361
-0.063772
-0.063844
-0.065800
-0.069027
-0.072397
-0.074631
-0.074431
-0.070454
-0.061664
-0.048334
-0.033303
-0.022314
-0.022245
-0.037057
-0.062748
-0.083886
-0.074422
-0.004295
0.149187
0.389046
0.691192
1.006935
1.276669
1.450077
1.503784
1.447898
1.318551
1.161069
1.012616
0.891958
0.798983
0.721487
0.644291
0.556263
0.453198
0.336910
0.212327
0.084431
-0.043766
-0.171922
-0.301877
-0.436281
-0.576797
-0.722557
-0.869686
-1.012324
-1.144774
-1.263625
-1.368622
-1.461793
-1.545488
-1.620604
-1.686008
-1.739259
-1.777933
-1.800668
-1.807478
-1.799382
-1.777671
-1.743143
-1.695596
-1.633874
-1.556626
-1.463676
-1.357435
-1.243578
-1.130363
-1.026629
-0.939200
-0.870839
-0.819646
-0.780033
-0.744706
-0.706753
-0.661158
-0.605505
-0.540003
-0.467008
-0.390152
-0.313271
-0.239459
-0.170634
-0.107698
-0.051055
-0.000995
0.042304
0.079033
0.109911
0.136006
0.158300
0.177314
0.193028
0.205127
0.213365
0.217842
0.219109
0.218178
0.216458
0.215540
0.216781
0.220785
0.227124
0.234555
0.241739
0.247991
0.253563
0.259270
0.265794
0.273231
0.281190
0.289234
0.297254
0.305458
0.314087
0.323181
0.332597
0.342223
0.352120
0.362434
0.373182
0.384130
0.394925
0.405338
0.415425
0.425475
0.435844
0.446838
0.458731
0.471789
0.486173
0.501739
0.517929
0.533976
0.549375
0.564298
0.579596
0.596339
0.615184
0.636016
0.658073
0.680432
0.702502
0.724210
0.745826
0.767581
0.789345
0.810502
0.830019
0.846647
0.859209
0.866911
0.869597
0.867781
0.862354
0.854065
0.843085
0.828989
0.811182
0.789479
0.764396
0.736933
0.708005
0.677970
0.646538
0.613044
0.576806
0.537342
0.494455
0.448326
0.399636
0.349584
0.299599
0.250850
0.203820
0.158286
0.113733
0.069900
0.027042
-0.014259
-0.053523
-0.090644
-0.125772
-0.158936
-0.189774
-0.217666
-0.242162
-0.263317
-0.281625
-0.297619
-0.311558
-0.323488
-0.333550
-0.342169
-0.349909
-0.357162
-0.364008
-0.370355
-0.376195
-0.381658
-0.386799
-0.391381
-0.394965
-0.397329
-0.398856
-0.400468
-0.403066
-0.406882
-0.411268
-0.415110
-0.417512
-0.418238
-0.417671
-0.416438
-0.415063
-0.413863
-0.413041
-0.412799
-0.413333
-0.414747
-0.416987
-0.419886
-0.423245
-0.426845
-0.430416
-0.433630
-0.436251
-0.438367
-0.440517
-0.443519
-0.448021
-0.454030
-0.460760
-0.466972
-0.471661
-0.474654
-0.476727
-0.479160
-0.483074
-0.488939
-0.496482
-0.504925
-0.513380
-0.521234
-0.528384
-0.535213
-0.542268
-0.549777
-0.557231
-0.563315
-0.566351
-0.565094
-0.559461
-0.550729
-0.541065
-0.532647
-0.526925
-0.524383
-0.524792
-0.527597
-0.532134
-0.537666
-0.543417
-0.548727
-0.553209
-0.556748
-0.559324
-0.560861
-0.561328
-0.561007
-0.560630
-0.561088
-0.562833
-0.565434
-0.567764
-0.568757
-0.568193
-0.566867
-0.566013
-0.566437
-0.568020
-0.569931
-0.571321
-0.571994
-0.572594
-0.574220
-0.577794
-0.583594
-0.591171
-0.599568
-0.607594
-0.614058
-0.617984
-0.618869
-0.616866
-0.612702
-0.607281
-0.601202
-0.594538
-0.586999
-0.578344
-0.568708
-0.558632
-0.548865
-0.540149
-0.533130
-0.528301
-0.525853
-0.525457
-0.526217
-0.527010
-0.527116
-0.526642
-0.526284
-0.526418
-0.526189
-0.523415
-0.515643
-0.501901
-0.484130
-0.467358
-0.458126
-0.461338
-0.476254
-0.492984
-0.491370
-0.444243
-0.325847
-0.123657
0.151225
0.461193
0.750662
0.964186
1.066399
1.053942
0.953542
0.808056
0.658449
0.530468
0.430596
0.350378
0.274798
0.190215
0.089143
-0.028767
-0.158716
-0.294180
-0.430063
-0.564289
-0.697410
-0.830856
-0.965054
-1.098572
-1.228604
-1.352316
-1.468075
-1.575838
-1.676535
-1.770899
-1.858465
-1.937258
-2.004279
-2.056491
-2.091894
-2.110295
-2.113509
-2.104763
-2.087307
-2.062626
-2.029134
-1.982268
-1.916340
-1.827493
-1.716374
-1.589221
-1.456794
-1.331566
-1.224206
-1.140584
-1.080291
-1.037178
-1.001705
-0.964187
-0.917667
-0.859315
-0.790053
-0.712971
-0.631581
-0.548842
-0.467145
-0.388797
-0.316238
-0.251663
-0.196284
-0.149862
-0.110908
-0.077429
-0.047716
-0.020726
0.004039
0.026867
0.048070
0.067984
0.086872
0.104902
0.122214
0.138954
0.155230
0.171029
0.186253
0.200899
0.215204
0.229587
0.244379
0.259615
0.275137
0.290952
0.307481
0.325328
0.344661
0.364704
0.383891
0.400719
0.414721
0.426813
0.438732
0.452014
0.467285
0.484297
0.502518
0.521658
0.541714
0.562643
0.584078
0.605426
0.626264
0.646639
0.667025
0.687977
0.709843
0.732778
0.756966
0.782706
0.810171
0.839042
0.868415
0.897199
0.924759
0.951335
0.977908
1.005619
1.035122
1.066258
1.098099
1.129205
1.157910
1.182658
1.202449
1.217291
1.228348
1.237551
1.246760
1.256975
1.268035
1.278915
1.288284
1.294916
1.297796
1.296086
1.289217
1.277157
1.260646
1.241065
1.219850
1.197737
1.174364
1.148539
1.118977
1.085047
1.047064
1.006099
0.963579
0.920976
0.879685
0.840896
0.805322
0.772879
0.742632
0.713202
0.683419
0.652815
0.621675
0.590737
0.560891
0.533086
0.508374
0.487810
0.472097
0.461175
0.454110
0.449449
0.445862
0.442640
0.439756
0.437518
0.436164
0.435664
0.435793
0.436254
0.436759
0.437097
0.437311
0.437914
0.439936
0.444539
0.452309
0.462629
0.473639
0.482949
0.488736
0.490609
0.489759
0.488363
0.488604
0.491825
0.498143
0.506559
0.515427
0.523088
0.528483
0.531523
0.533035
0.534240
0.536012
0.538349
0.540421
0.541183
0.540122
0.537622
0.534725
0.532540
0.531761
0.532570
0.534808
0.538130
0.541997
0.545617
0.548092
0.548796
0.547755
0.545679
0.543589
0.542295
0.542076
0.542701
0.543635
0.544198
0.543624
0.541198
0.536585
0.530268
0.523702
0.518930
0.517756
0.520970
0.528074
0.537627
0.547900
0.557426
0.565237
0.570871
0.574303
0.575885
0.576231
0.576002
0.575647
0.575314
0.575010
0.574900
0.575426
0.577055
0.579784
0.582815
0.584771
0.584400
0.581337
0.576401
0.571195
0.567281
0.565448
0.565521
0.566690
0.567984
0.568560
0.567787
0.565336
0.561351
0.556555
0.552062
0.548889
0.547446
0.547380
0.547853
0.548014
0.547280
0.545327
0.541913
0.536835
0.530081
0.521992
0.513193
0.504230
0.495212
0.485827
0.475815
0.465531
0.456096
0.448917
0.444881
0.443791
0.444433
0.445222
0.444997
0.443572
0.441816
0.441278
0.443391
0.448399
0.454415
0.457250
0.451734
0.434757
0.409305
0.387695
0.391634
0.447391
0.576346
0.783838
1.051395
1.337350
1.587752
1.754171
1.810623
1.761471
1.636794
1.478270
1.323016
1.192548
1.090188
1.005805
0.924001
0.831596
0.721774
0.594396
0.453696
0.305182
0.153224
-0.000062
-0.154736
-0.312182
-0.473892
-0.640275
-0.809866
-0.979270
-1.143952
-1.299546
-1.442988
-1.572805
-1.688475
-1.789453
-1.874707
-1.943111
-1.994300
-2.029245
-2.050065
-2.059162
-2.058156
-2.047135
-2.024526
-1.987639
-1.933799
-1.861837
-1.773527
-1.674351
-1.572950
-1.479121
-1.400940
-1.342254
-1.301743
-1.273992
-1.251889
-1.229094
-1.201560
-1.167869
-1.128790
-1.086574
-1.044213
-1.004644
-0.969900
-0.940490
-0.915331
-0.892376
-0.869638
-0.846082
-0.821927
